 13:22:36.,-0.512612,-0.517770,-0.508905,-0.556937,-0.501651,-0.535177,-0.505197,-0.534694,-0.530987,-0.514224,-0.501812,-0.548556,-0.569026,-0.523572,-0.506809,-0.515674,-0.524862,-0.559677,-0.527441,-0.504230,-0.510033,-0.515835,-0.529375,-0.494559,-0.560483,-0.530664,-0.503747,-0.555487,-0.503747,-0.503263,-0.489401,-0.520671,-0.521477,-0.493431,-0.455392,-0.470865,-0.418481,-0.415418,-0.443625,-0.382214,-0.371576,-0.374478,-0.358037,-0.376734,-0.376895,-0.339340,-0.380602,-0.331280,-0.326767,-0.328218,-0.307909,-0.373833,-0.311777,-0.351912,-0.306619,-0.293563,-0.332409,-0.332570,-0.275188,-0.289534,-0.275511,-0.247787,-0.188311,-0.188472,-0.143985,-0.154301,-0.197659,-0.182669,-0.235215,-0.237310,-0.307425,-0.306297,-0.368514,-0.387695,-0.413484,-0.439434,-0.523411,-0.519704,-0.522766,-0.527279,-0.556293,-0.564835,-0.550651,-0.592559,-0.575151,-0.531793,-0.516158,-0.533888,-0.466030,-0.437178,-0.437339,-0.409616,-0.409454,-0.382537,-0.375767,-0.413967,-0.371576,-0.428796,-0.377540,-0.401879,-0.415418,-0.416708,-0.430892,-0.451846,-0.458776,-0.489563,-0.529858,-0.494076,-0.558388,-0.531148,-0.523089,-0.572733,-0.578697,-0.541141,-0.530987,-0.530181,-0.548556,-0.529536,-0.541786,-0.583694,-0.519381,-0.523733,-0.541625,-0.529375,-0.555809,-0.529536,-0.533404,-0.537273,-0.534049,-0.530664,-0.564029,-0.561934,-0.533727,-0.523895,-0.567575,-0.539046,-0.519220,-0.529375,-0.564191,-0.558710,-0.540497,-0.523895,-0.556937,-0.511000,-0.564996,-0.557098,-0.564352,-0.529052,-0.569510,-0.511322,-0.553069,-0.514707,-0.505842,-0.511806,-0.530181,-0.565964,-0.554681,-0.545654,-0.511806,-0.515352,-0.516641,-0.544848,-0.514546,-0.520510,-0.550651,-0.554520,-0.544204,-0.540335,-0.550168,-0.483438,-0.530181,-0.521638,-0.524378,-0.527763,-0.497944,-0.508260,-0.535661,-0.503585,-0.527441,-0.519704,-0.497622,-0.535661,-0.484405,-0.523895,-0.537112,-0.520993,-0.493431,-0.525184,-0.469898,-0.480214,-0.516803,-0.509388,-0.506003,-0.471994,-0.509388,-0.489724,-0.468609,-0.482954,-0.515513,-0.486822,-0.517286,-0.454747,-0.510678,-0.470543,-0.513257,-0.500684,-0.475378,-0.476023,-0.456036,-0.504714,-0.469092,-0.475378,-0.458776,-0.471026,-0.450556,-0.450878,-0.499234,-0.477957,-0.453135,-0.458293,-0.451201,-0.486178,-0.484566,-0.450878,-0.444270,-0.487790,-0.450073,-0.489401,-0.443625,-0.488112,-0.439918,-0.487790,-0.470543,-0.435727,-0.472961,-0.454102,-0.445076,-0.415418,-0.478763,-0.424122,-0.456842,-0.474572,-0.445237,-0.431214,-0.461517,-0.427507,-0.433632,-0.416385,-0.458938,-0.441530,-0.400106,-0.440563,-0.411711,-0.388500,-0.414773,-0.398816,-0.441046,-0.435244,-0.413484,-0.399461,-0.406231,-0.441530,-0.434438,-0.436372,-0.431053,-0.401879,-0.411389,-0.401879,-0.390273,-0.382537,-0.389468,-0.387050,-0.428474,-0.377862,-0.390112,-0.387533,-0.383987,-0.426217,-0.403974,-0.426217,-0.431053,-0.390112,-0.398977,-0.417675,-0.428796,-0.391402,-0.422994,-0.426056,-0.431214,-0.382375,-0.397366,-0.417030,-0.441046,-0.400428,-0.408648,-0.421382,-0.398494,-0.394948,-0.407842,-0.452490,-0.397043,-0.451684,-0.398655,-0.391402,-0.415418,-0.401073,-0.421865,-0.419770,-0.425089,-0.429280,-0.467964,-0.422994,-0.434438,-0.426701,-0.444754,-0.465224,-0.451523,-0.438951,-0.433309,-0.484405,-0.485372,-0.481665,-0.469576,-0.457648,-0.450234,-0.488112,-0.468286,-0.485533,-0.476990,-0.471510,-0.520671,-0.474250,-0.469253,-0.476507,-0.519704,-0.517931,-0.518253,-0.538240,-0.490691,-0.511806,-0.552263,-0.491013,-0.550329,-0.509388,-0.516964,-0.533888,-0.523733,-0.530181,-0.570154,-0.575796,-0.564191,-0.522605,-0.547105,-0.582565,-0.547750,-0.544204,-0.585950,-0.578536,-0.568704,-0.589980,-0.545493,-0.581276,-0.560000,-0.547589,-0.553069,-0.546622,-0.555970,-0.588529,-0.545816,-0.554358,-0.587885,-0.561450,-0.601424,-0.561450,-0.586756,-0.557904,-0.580954,-0.565158,-0.554358,-0.595944,-0.601746,-0.573056,-0.603036,-0.594977,-0.543559,-0.592720,-0.609161,-0.539691,-0.590302,-0.585628,-0.550168,-0.563385,-0.593204,-0.592720,-0.558871,-0.550651,-0.599167,-0.601907,-0.595299,-0.601746,-0.559839,-0.554681,-0.590141,-0.581598,-0.550168,-0.555809,-0.566125,-0.584016,-0.610128,-0.564191,-0.607710,-0.601907,-0.586273,-0.547427,-0.540658,-0.606743,-0.548878,-0.587562,-0.553714,-0.579987,-0.569993,-0.534210,-0.561450,-0.543720,-0.527763,-0.555970,-0.588368,-0.584500,-0.547589,-0.587401,-0.571766,-0.555325,-0.597556,-0.554520,-0.550490,-0.546460,-0.530987,-0.546622,-0.537595,-0.531631,-0.547266,-0.535016,-0.530664,-0.527602,-0.574667,-0.551296,-0.573539,-0.575635,-0.547105,-0.585467,-0.525184,-0.528085,-0.544204,-0.550329,-0.567253,-0.528730,-0.569671,-0.566608,-0.574345,-0.597394,-0.581598,-0.572411,-0.540658,-0.586756,-0.584500,-0.546944,-0.545332,-0.548878,-0.523572,-0.535500,-0.514707,-0.524701,-0.524862,-0.548233,-0.562095,-0.571444,-0.546138,-0.519220,-0.532760,-0.530987,-0.516158,-0.528247,-0.526151,-0.529858,-0.553714,-0.578536,-0.559839,-0.506970,-0.524701,-0.522928,-0.553391,-0.579342,-0.575151,-0.523411,-0.564029,-0.533404,-0.555809,-0.526474,-0.538724,-0.541947,-0.552746,-0.575957,-0.569510,-0.559033,-0.557582,-0.580631,-0.520993,-0.544365,-0.576763,-0.564513,-0.525829,-0.549039,-0.555970,-0.526312,-0.562095,-0.567898,-0.554358,-0.517608,-0.523572,-0.520832,-0.554520,-0.518737,-0.560322,-0.540335,-0.527602,-0.530020,-0.518253,-0.525990,-0.529697,-0.556131,-0.530342,-0.564513,-0.533082,-0.513095,-0.524056,-0.534372,-0.512128,-0.525506,-0.516480,-0.565319,-0.504069,-0.517931,-0.522605,-0.517447,-0.520832,-0.522444,-0.541302,-0.514385,-0.552908,-0.569671,-0.540497,-0.530664,-0.556293,-0.542592,-0.520187,-0.522122,-0.517931,-0.546138,-0.561612,-0.559355,-0.561128,-0.534533,-0.516480,-0.528247,-0.548233,-0.514385,-0.537918,-0.548072,-0.518898,-0.505036,-0.506326,-0.514868,-0.510516,-0.501812,-0.525345,-0.525023,-0.541141,-0.521960,-0.541302,-0.523572,-0.513257,-0.549845,-0.507454,-0.572572,-0.545332,-0.510678,-0.491819,-0.505036,-0.515513,-0.508582,-0.547589,-0.545010,-0.518576,-0.551618,-0.511000,-0.523895,-0.504875,-0.499878,-0.515513,-0.554842,-0.552585,-0.504714,-0.513095,-0.541141,-0.496493,-0.530826,-0.529052,-0.505681,-0.545977,-0.538885,-0.527118,-0.502780,-0.508099,-0.535016,-0.492141,-0.497299,-0.527118,-0.478280,-0.486661,-0.486016,-0.509388,-0.490530,-0.457003,-0.471671,-0.547589,-0.486500,-0.483760,-0.523733,-0.493753,-0.481987,-0.500684,-0.498589,-0.468609,-0.494720,-0.477957,-0.496655,-0.505520,-0.471832,-0.510678,-0.464257,-0.506970,-0.464257,-0.492786,-0.513418,-0.451362,-0.453941,-0.447655,-0.429280,-0.441207,-0.447010,-0.446204,-0.472477,-0.429280,-0.450878,-0.491658,-0.435888,-0.472477,-0.505842,-0.471671,-0.446527,-0.498589,-0.496977,-0.462967,-0.474089,-0.472638,-0.452168,-0.437984,-0.469415,-0.463773,-0.482793,-0.451846,-0.477151,-0.465707,-0.448783,-0.499234,-0.467480,-0.487790,-0.503263,-0.493914,-0.457971,-0.469898,-0.502135,-0.444754,-0.488434,-0.496010,-0.465707,-0.468931,-0.492786,-0.473283,-0.451846,-0.501490,-0.485049,-0.479408,-0.532599,-0.495043,-0.540497,-0.516964,-0.554358,-0.543237,-0.562579,-0.507293,-0.540980,-0.510678,-0.537918,-0.540497,-0.509549,-0.499234,-0.540335,-0.540497,-0.555970,-0.522766,-0.535822,-0.515513,-0.519381,-0.530664,-0.525345,-0.513740,-0.533082,-0.523089,-0.543881,-0.564029,-0.564835,-0.496010,-0.547750,-0.553714,-0.527602,-0.502296,-0.557582,-0.515674,-0.553391,-0.562417,-0.560322,-0.559677,-0.551296,-0.548717,-0.565802,-0.543559,-0.527441,-0.572250,-0.502618,-0.574184,-0.518253,-0.569348,-0.519059,-0.526796,-0.524217,-0.519704,-0.515835,-0.542592,-0.556454,-0.505197,-0.574667,-0.509872,-0.499556,-0.561450,-0.492625,-0.500039,-0.509549,-0.513257,-0.535016,-0.506809,-0.508743,-0.502296,-0.503102,-0.501974,-0.497944,-0.534533,-0.531470,-0.491013,-0.500362,-0.533727,-0.545654,-0.520832,-0.475056,-0.497299,-0.508099,-0.493753,-0.520349,-0.517770,-0.546783,-0.518414,-0.559355,-0.510516,-0.517286,-0.501168,-0.502941,-0.559516,-0.487467,-0.542270,-0.483438,-0.537918,-0.497138,-0.509227,-0.539207,-0.493914,-0.498589,-0.516964,-0.495365,-0.519220,-0.546944,-0.495688,-0.515674,-0.533727,-0.524378,-0.481181,-0.521316,-0.511000,-0.518253,-0.466997,-0.510678,-0.501007,-0.464901,-0.475217,-0.438145,-0.452813,-0.444754,-0.393497,-0.386566,-0.368191,-0.404619,-0.376895,-0.369803,-0.385760,-0.318547,-0.371899,-0.376089,-0.334826,-0.329024,-0.366096,-0.323382,-0.315968,-0.330636,-0.321287,-0.344336,-0.295014,-0.291952,-0.261488,-0.295981,-0.224255,-0.252139,-0.224738,-0.202817,-0.178478,-0.186376,-0.176383,-0.185570,-0.202334,-0.253268,-0.299527,-0.340145,-0.389629,-0.382537,-0.413645,-0.477313,-0.507776,-0.469576,-0.490852,-0.561450,-0.534049,-0.536467,-0.565641,-0.562901,-0.522605,-0.514868,-0.505681,-0.519543,-0.488112,-0.471510,-0.421221,-0.372866,-0.411389,-0.402040,-0.349333,-0.351267,-0.359810,-0.380764,-0.371093,-0.424928,-0.442497,-0.472477,-0.464579,-0.503102,-0.490046,-0.502296,-0.505842,-0.512128,-0.511967,-0.523411,-0.524378,-0.562579,-0.529536,-0.582243,-0.576763,-0.524701,-0.522928,-0.556615,-0.524539,-0.523089,-0.516803,-0.539691,-0.545010,-0.524217,-0.525668,-0.549845,-0.574990,-0.501007,-0.529375,-0.516964,-0.538401,-0.529697,-0.523411,-0.579181,-0.537595,-0.549200,-0.582243,-0.571927,-0.569187,-0.519543,-0.546783,-0.537918,-0.520187,-0.541786,-0.493914,-0.509227,-0.555970,-0.508099,-0.495043,-0.548556,-0.503908,-0.514868,-0.502296,-0.503747,-0.514385,-0.505197,-0.517447,-0.552263,-0.547750,-0.497461,-0.530342,-0.540658,-0.523411,-0.549523,-0.517447,-0.522283,-0.513257,-0.526474,-0.543398,-0.537918,-0.485855,-0.536628,-0.549523,-0.533082,-0.496332,-0.536306,-0.528085,-0.535822,-0.503424,-0.487467,-0.482632,-0.526957,-0.506326,-0.499878,-0.481181,-0.527279,-0.494882,-0.479892,-0.516803,-0.520993,-0.474089,-0.480053,-0.469092,-0.485855,-0.499556,-0.467158,-0.486984,-0.476507,-0.461517,-0.481181,-0.510194,-0.463451,-0.469253,-0.523250,-0.510033,-0.506970,-0.495526,-0.448138,-0.471510,-0.503908,-0.456520,-0.480697,-0.450717,-0.507615,-0.443142,-0.484082,-0.503747,-0.480697,-0.439918,-0.436856,-0.430892,-0.457165
 13:22:37.,-0.446849,-0.479569,-0.426701,-0.427990,-0.455230,-0.464579,-0.425895,-0.449105,-0.468447,-0.439918,-0.442658,-0.428152,-0.435082,-0.448783,-0.425411,-0.427185,-0.428958,-0.409616,-0.417513,-0.427829,-0.422188,-0.454425,-0.395915,-0.412517,-0.460549,-0.463612,-0.398977,-0.419931,-0.411550,-0.441369,-0.407681,-0.444431,-0.402685,-0.409616,-0.437500,-0.432342,-0.400428,-0.385760,-0.444592,-0.386405,-0.377701,-0.382375,-0.392691,-0.387211,-0.394303,-0.434921,-0.420092,-0.370448,-0.416385,-0.390918,-0.377218,-0.385116,-0.428152,-0.359971,-0.364968,-0.418158,-0.416385,-0.408165,-0.388984,-0.380280,-0.403974,-0.386727,-0.384954,-0.379474,-0.422188,-0.388017,-0.426217,-0.430247,-0.425734,-0.385277,-0.364968,-0.413967,-0.382214,-0.405264,-0.388500,-0.416546,-0.380764,-0.394303,-0.385922,-0.414773,-0.432181,-0.455230,-0.428313,-0.432504,-0.387211,-0.431698,-0.418642,-0.393658,-0.410421,-0.425573,-0.437017,-0.409616,-0.411227,-0.428313,-0.410583,-0.448944,-0.427507,-0.468286,-0.467158,-0.439112,-0.456036,-0.438629,-0.451523,-0.481987,-0.485049,-0.477957,-0.455230,-0.476345,-0.521155,-0.472799,-0.468931,-0.512773,-0.475056,-0.517770,-0.478602,-0.476829,-0.523089,-0.478441,-0.483276,-0.500684,-0.487628,-0.497944,-0.504391,-0.531470,-0.503585,-0.517608,-0.505036,-0.567092,-0.530987,-0.521155,-0.573378,-0.529052,-0.549845,-0.568381,-0.569348,-0.537434,-0.506970,-0.531793,-0.580792,-0.576440,-0.533243,-0.548556,-0.536306,-0.566447,-0.584016,-0.543720,-0.550006,-0.554358,-0.595782,-0.585144,-0.538240,-0.555003,-0.545816,-0.527924,-0.558549,-0.540497,-0.551618,-0.548233,-0.601263,-0.598361,-0.592559,-0.569671,-0.566125,-0.553391,-0.600779,-0.567737,-0.602391,-0.542431,-0.610773,-0.542270,-0.594171,-0.559677,-0.563546,-0.550329,-0.575635,-0.576279,-0.553875,-0.562740,-0.557743,-0.545654,-0.572089,-0.592881,-0.592720,-0.542592,-0.575796,-0.543559,-0.530020,-0.584500,-0.550006,-0.533243,-0.545816,-0.591914,-0.550812,-0.545332,-0.552102,-0.603197,-0.543720,-0.568059,-0.550490,-0.585467,-0.584661,-0.550651,-0.540013,-0.522928,-0.541625,-0.592881,-0.532599,-0.541947,-0.543075,-0.554520,-0.584500,-0.576279,-0.541786,-0.573378,-0.523733,-0.578697,-0.539046,-0.539207,-0.577569,-0.533404,-0.519381,-0.560967,-0.521638,-0.559516,-0.529697,-0.575312,-0.547105,-0.523250,-0.548395,-0.532437,-0.579342,-0.585789,-0.536145,-0.571605,-0.574829,-0.538079,-0.535339,-0.565802,-0.537273,-0.550490,-0.519059,-0.580148,-0.570799,-0.544365,-0.568059,-0.530987,-0.543237,-0.522766,-0.531793,-0.565158,-0.572572,-0.527441,-0.537918,-0.574667,-0.559839,-0.547427,-0.564352,-0.518898,-0.568865,-0.531309,-0.525345,-0.563546,-0.554842,-0.549523,-0.553391,-0.537273,-0.560000,-0.537595,-0.522605,-0.526474,-0.571444,-0.516641,-0.530181,-0.531954,-0.528891,-0.550168,-0.552746,-0.577085,-0.523089,-0.558066,-0.536467,-0.525668,-0.544848,-0.564513,-0.535822,-0.528247,-0.573056,-0.524056,-0.509227,-0.526151,-0.531631,-0.523411,-0.567092,-0.575151,-0.526796,-0.565641,-0.553552,-0.593526,-0.532437,-0.572733,-0.576279,-0.546622,-0.534533,-0.547911,-0.521799,-0.526796,-0.569993,-0.519865,-0.540174,-0.528891,-0.540980,-0.564513,-0.535016,-0.558871,-0.559033,-0.524378,-0.581760,-0.530181,-0.540980,-0.521316,-0.542431,-0.509388,-0.512289,-0.550168,-0.510678,-0.538240,-0.540980,-0.541464,-0.534855,-0.569348,-0.573700,-0.551618,-0.520349,-0.557904,-0.517125,-0.509872,-0.553069,-0.577408,-0.511806,-0.475056,-0.561289,-0.545816,-0.509066,-0.521316,-0.570960,-0.523895,-0.555648,-0.563223,-0.550973,-0.507776,-0.510033,-0.515352,-0.556615,-0.501974,-0.525668,-0.519543,-0.529375,-0.529214,-0.506648,-0.547266,-0.508421,-0.548233,-0.559355,-0.535177,-0.536950,-0.526151,-0.499878,-0.505520,-0.515513,-0.503908,-0.532599,-0.552263,-0.510194,-0.523895,-0.535822,-0.557582,-0.556293,-0.547589,-0.516480,-0.547427,-0.498911,-0.495688,-0.511967,-0.506970,-0.534533,-0.529536,-0.555003,-0.486339,-0.493914,-0.494076,-0.496977,-0.510033,-0.554036,-0.559677,-0.508582,-0.508099,-0.504714,-0.516158,-0.508260,-0.541947,-0.542270,-0.501007,-0.536467,-0.513418,-0.495688,-0.514224,-0.551618,-0.497138,-0.548072,-0.500845,-0.511322,-0.499072,-0.501490,-0.500039,-0.502941,-0.549039,-0.511483,-0.545977,-0.507293,-0.492141,-0.552102,-0.528247,-0.545977,-0.538401,-0.479730,-0.502135,-0.504875,-0.502135,-0.532115,-0.539852,-0.537595,-0.491819,-0.522444,-0.542431,-0.523089,-0.539368,-0.551135,-0.560000,-0.510678,-0.506326,-0.505036,-0.499395,-0.536467,-0.539529,-0.536145,-0.536145,-0.504230,-0.517286,-0.504553,-0.491174,-0.498266,-0.490530,-0.470865,-0.492303,-0.494559,-0.473444,-0.492303,-0.519704,-0.488757,-0.514224,-0.473122,-0.494237,-0.526151,-0.474734,-0.474411,-0.481826,-0.517286,-0.484888,-0.485372,-0.468770,-0.508582,-0.481665,-0.510033,-0.488112,-0.475862,-0.519059,-0.466836,-0.480375,-0.509710,-0.459744,-0.490368,-0.482309,-0.483599,-0.444754,-0.480697,-0.492947,-0.470543,-0.440563,-0.441530,-0.434277,-0.469415,-0.442336,-0.447816,-0.481020,-0.438790,-0.440240,-0.452652,-0.490368,-0.435727,-0.455553,-0.448300,-0.442175,-0.443786,-0.432020,-0.468447,-0.463773,-0.419931,-0.455230,-0.487628,-0.452490,-0.451040,-0.487790,-0.479247,-0.489401,-0.515191,-0.444754,-0.445559,-0.441852,-0.445398,-0.443303,-0.436694,-0.459099,-0.464257,-0.491980,-0.498105,-0.511322,-0.517447,-0.484566,-0.490046,-0.541947,-0.505842,-0.505359,-0.501329,-0.510839,-0.537595,-0.515674,-0.514224,-0.479408,-0.562095,-0.514546,-0.492947,-0.504391,-0.555809,-0.508099,-0.513418,-0.509388,-0.563707,-0.494398,-0.506487,-0.508905,-0.504069,-0.500039,-0.516158,-0.509066,-0.505036,-0.548233,-0.534855,-0.531954,-0.561450,-0.557582,-0.544526,-0.549845,-0.505520,-0.539046,-0.518253,-0.521799,-0.530342,-0.532760,-0.553875,-0.516480,-0.559194,-0.536628,-0.535983,-0.543559,-0.518898,-0.550168,-0.562256,-0.558066,-0.541302,-0.527763,-0.561612,-0.536950,-0.535500,-0.544687,-0.499072,-0.507132,-0.502135,-0.541786,-0.487145,-0.510355,-0.492786,-0.488918,-0.492303,-0.496332,-0.532921,-0.546138,-0.513418,-0.500684,-0.494398,-0.506809,-0.545654,-0.496655,-0.494237,-0.515191,-0.521477,-0.488757,-0.535661,-0.510839,-0.538724,-0.513579,-0.540497,-0.545493,-0.499717,-0.500201,-0.541141,-0.493270,-0.538079,-0.538885,-0.517770,-0.498750,-0.501168,-0.536950,-0.525184,-0.499717,-0.541141,-0.508743,-0.546299,-0.564191,-0.540819,-0.542753,-0.560967,-0.545332,-0.538079,-0.514868,-0.493270,-0.532437,-0.492625,-0.494237,-0.505520,-0.522928,-0.555003,-0.538240,-0.525990,-0.504069,-0.507937,-0.504391,-0.457487,-0.446849,-0.421704,-0.457971,-0.413000,-0.411872,-0.411066,-0.374155,-0.368836,-0.389145,-0.338534,-0.330474,-0.372704,-0.324672,-0.366418,-0.315484,-0.356586,-0.352557,-0.315646,-0.293080,-0.327734,-0.289695,-0.331764,-0.280508,-0.327412,-0.298077,-0.264389,-0.231508,-0.232636,-0.229896,-0.159620,-0.196047,-0.153173,-0.145113,-0.147854,-0.181057,-0.195241,-0.235376,-0.268580,-0.324511,-0.317580,-0.418803,-0.407520,-0.424122,-0.508260,-0.497138,-0.514707,-0.546622,-0.518737,-0.568704,-0.545654,-0.505681,-0.553875,-0.493270,-0.519704,-0.468770,-0.476184,-0.458132,-0.406553,-0.394142,-0.376734,-0.393014,-0.359487,-0.391241,-0.376734,-0.376573,-0.376412,-0.429763,-0.417513,-0.426540,-0.480859,-0.480053,-0.481181,-0.482954,-0.485694,-0.528408,-0.540980,-0.500845,-0.550006,-0.539529,-0.533243,-0.517608,-0.521960,-0.518414,-0.530987,-0.535339,-0.517931,-0.550490,-0.534049,-0.514707,-0.542108,-0.514546,-0.561450,-0.522766,-0.509066,-0.540335,-0.511967,-0.558066,-0.555164,-0.519704,-0.564835,-0.497622,-0.542431,-0.515030,-0.508905,-0.528569,-0.522766,-0.498750,-0.543237,-0.529697,-0.522283,-0.496655,-0.515513,-0.512128,-0.506487,-0.527763,-0.550168,-0.558227,-0.549684,-0.529052,-0.500523,-0.542592,-0.533243,-0.527279,-0.495204,-0.509710,-0.526796,-0.533404,-0.489079,-0.540335,-0.492464,-0.518253,-0.549039,-0.533404,-0.493109,-0.507454,-0.498589,-0.528247,-0.488595,-0.503747,-0.480536,-0.484082,-0.501329,-0.472155,-0.480536,-0.522928,-0.479408,-0.470704,-0.514224,-0.504714,-0.480375,-0.477957,-0.519059,-0.510839,-0.515191,-0.486339,-0.487467,-0.485372,-0.470382,-0.522605,-0.508099,-0.499072,-0.513418,-0.473283,-0.463451,-0.492303,-0.469253,-0.450073,-0.450073,-0.492303,-0.509066,-0.453296,-0.455392,-0.487951,-0.445076,-0.453941,-0.449911,-0.485694,-0.476668,-0.491013,-0.463290,-0.457326,-0.492786,-0.482632,-0.456842,-0.443142,-0.451684,-0.442819,-0.452652,-0.452813,-0.484888,-0.424928,-0.447977,-0.438145,-0.429763,-0.425411,-0.472477,-0.426056,-0.429925,-0.459260,-0.442980,-0.450073,-0.447010,-0.430086,-0.422188,-0.449750,-0.453296,-0.441691,-0.410583,-0.455714,-0.416869,-0.407842,-0.436694,-0.404135,-0.437984,-0.431536,-0.404296,-0.448300,-0.397204,-0.391563,-0.407842,-0.401395,-0.393497,-0.413000,-0.424767,-0.425250,-0.387695,-0.444431,-0.391402,-0.436050,-0.398171,-0.409293,-0.385760,-0.393175,-0.391724,-0.391885,-0.388017,-0.422671,-0.419125,-0.368836,-0.400267,-0.382537,-0.414773,-0.363678,-0.395431,-0.383343,-0.397043,-0.410421,-0.409132,-0.407359,-0.404619,-0.377218,-0.418158,-0.395270,-0.377862,-0.419770,-0.373994,-0.413484,-0.378185,-0.361260,-0.443948,-0.411066,-0.415902,-0.388017,-0.381731,-0.425734,-0.427346,-0.413484,-0.419448,-0.434599,-0.388984,-0.383020,-0.389790,-0.397366,-0.383987,-0.380764,-0.416546,-0.394625,-0.427829,-0.412517,-0.464418,-0.453780,-0.422027,-0.412194,-0.429763,-0.437339,-0.419448,-0.420737,-0.450073,-0.457648,-0.462000,-0.443786,-0.454102,-0.451040,-0.491013,-0.428313,-0.452007,-0.449105,-0.450073,-0.468125,-0.469737,-0.525990,-0.469898,-0.481342,-0.501168,-0.458132,-0.467319,-0.474734,-0.478924,-0.478924,-0.522283,-0.478763,-0.527279,-0.502296,-0.490691,-0.502296,-0.531309,-0.504391,-0.508905,-0.528730,-0.530664,-0.553230,-0.497299,-0.512451,-0.532437,-0.487145,-0.546783,-0.520510,-0.517770,-0.531470,-0.577569,-0.536467,-0.576763,-0.536628,-0.587885,-0.542431,-0.530503,-0.545977,-0.566286,-0.509227,-0.590141,-0.569348,-0.508905,-0.579503,-0.540174,-0.538401,-0.533082,-0.571283,-0.572894,-0.532760,-0.563707,-0.560644,-0.573378,-0.550812
 13:22:38.,-0.610450,-0.585628,-0.570477,-0.557743,-0.589658,-0.581921,-0.595621,-0.585628,-0.555970,-0.593848,-0.546299,-0.592236,-0.569671,-0.591108,-0.547427,-0.596588,-0.559194,-0.553069,-0.589980,-0.542753,-0.540819,-0.523411,-0.557421,-0.549684,-0.535016,-0.600779,-0.564674,-0.552263,-0.539207,-0.598039,-0.590625,-0.536306,-0.584177,-0.539691,-0.551135,-0.580631,-0.545977,-0.548233,-0.530826,-0.536950,-0.568542,-0.538240,-0.546138,-0.540819,-0.538079,-0.543881,-0.539368,-0.575473,-0.571766,-0.549523,-0.559839,-0.558388,-0.568059,-0.525184,-0.562095,-0.517931,-0.563707,-0.547427,-0.575312,-0.524539,-0.564191,-0.523089,-0.551135,-0.527763,-0.562740,-0.562740,-0.541947,-0.534372,-0.528085,-0.519865,-0.499395,-0.555003,-0.585789,-0.514707,-0.544365,-0.523089,-0.552585,-0.527763,-0.578375,-0.564835,-0.560483,-0.535822,-0.532437,-0.522605,-0.515352,-0.569832,-0.518737,-0.548717,-0.557421,-0.515674,-0.567898,-0.564352,-0.525829,-0.524378,-0.572572,-0.578052,-0.536628,-0.526957,-0.547266,-0.567575,-0.569993,-0.523250,-0.529214,-0.513740,-0.517770,-0.527924,-0.556454,-0.519543,-0.576118,-0.535339,-0.526635,-0.533243,-0.528408,-0.575796,-0.536789,-0.534694,-0.550651,-0.566608,-0.568542,-0.561450,-0.548556,-0.530826,-0.575796,-0.522122,-0.530987,-0.560322,-0.574506,-0.562417,-0.564029,-0.541786,-0.547105,-0.562095,-0.528891,-0.519543,-0.530826,-0.559677,-0.529858,-0.510194,-0.525184,-0.519704,-0.512289,-0.525668,-0.544365,-0.522605,-0.559033,-0.516158,-0.538079,-0.560483,-0.516641,-0.540980,-0.539852,-0.533888,-0.516480,-0.516480,-0.546299,-0.512773,-0.542592,-0.510033,-0.513740,-0.539852,-0.566931,-0.548072,-0.512128,-0.520026,-0.546460,-0.558710,-0.554197,-0.555325,-0.569510,-0.501812,-0.504714,-0.554681,-0.519704,-0.518253,-0.508743,-0.524217,-0.515997,-0.557743,-0.510839,-0.514385,-0.563868,-0.515352,-0.574506,-0.555648,-0.553230,-0.539207,-0.509710,-0.513740,-0.516964,-0.543881,-0.558871,-0.514062,-0.516158,-0.511161,-0.550168,-0.533727,-0.521155,-0.519543,-0.532115,-0.544526,-0.508905,-0.510033,-0.515352,-0.499072,-0.522928,-0.514707,-0.534533,-0.537273,-0.548072,-0.562579,-0.536467,-0.545977,-0.516319,-0.544848,-0.560644,-0.530664,-0.515835,-0.560161,-0.544204,-0.519865,-0.543075,-0.532276,-0.551457,-0.550651,-0.554520,-0.533566,-0.512128,-0.535661,-0.519704,-0.507132,-0.504391,-0.527441,-0.538401,-0.512289,-0.507293,-0.548717,-0.555809,-0.501812,-0.507132,-0.523089,-0.509872,-0.548878,-0.543720,-0.545654,-0.557260,-0.509066,-0.542592,-0.558710,-0.510355,-0.541141,-0.551941,-0.501812,-0.516319,-0.506970,-0.539046,-0.549523,-0.501974,-0.548072,-0.506970,-0.544526,-0.512128,-0.505359,-0.537756,-0.531309,-0.521799,-0.544687,-0.528085,-0.505197,-0.496010,-0.519543,-0.508905,-0.489079,-0.532276,-0.500684,-0.503585,-0.495849,-0.499072,-0.500684,-0.504714,-0.503102,-0.547911,-0.536950,-0.497944,-0.540819,-0.498911,-0.494720,-0.538401,-0.527924,-0.514546,-0.496332,-0.539691,-0.498266,-0.530020,-0.543398,-0.523089,-0.491819,-0.548878,-0.549362,-0.508582,-0.500523,-0.531793,-0.546299,-0.523250,-0.491658,-0.497944,-0.481665,-0.492625,-0.496010,-0.517608,-0.530987,-0.533727,-0.492303,-0.496332,-0.538401,-0.549200,-0.492947,-0.499395,-0.547589,-0.507776,-0.534372,-0.524701,-0.529375,-0.510033,-0.509066,-0.529375,-0.487790,-0.504230,-0.527441,-0.496816,-0.517770,-0.506326,-0.490046,-0.496977,-0.541947,-0.474089,-0.496332,-0.471671,-0.464257,-0.485049,-0.459582,-0.517931,-0.459099,-0.471510,-0.459744,-0.465869,-0.457165,-0.495849,-0.464579,-0.504391,-0.492303,-0.444754,-0.446688,-0.494882,-0.437823,-0.441530,-0.441691,-0.432826,-0.426540,-0.431375,-0.435888,-0.435727,-0.434921,-0.437823,-0.464096,-0.445721,-0.434438,-0.447494,-0.461839,-0.463934,-0.446043,-0.462645,-0.432020,-0.436050,-0.445721,-0.476829,-0.435405,-0.454586,-0.453941,-0.483438,-0.489240,-0.481181,-0.422671,-0.442013,-0.441046,-0.460872,-0.478602,-0.434115,-0.453135,-0.429602,-0.468931,-0.477796,-0.484405,-0.465546,-0.456198,-0.464257,-0.501974,-0.475217,-0.469415,-0.522928,-0.523250,-0.517931,-0.530503,-0.492625,-0.528085,-0.527279,-0.507776,-0.525829,-0.510678,-0.506809,-0.551779,-0.529214,-0.519059,-0.522444,-0.510033,-0.529697,-0.526312,-0.513740,-0.511645,-0.516319,-0.509872,-0.533243,-0.520187,-0.563385,-0.543398,-0.551618,-0.513901,-0.542592,-0.517770,-0.510194,-0.528730,-0.546460,-0.493431,-0.502941,-0.507132,-0.556615,-0.523733,-0.500684,-0.507132,-0.502135,-0.494720,-0.562740,-0.519865,-0.510678,-0.560161,-0.521960,-0.555809,-0.519865,-0.523089,-0.541302,-0.523572,-0.511967,-0.517125,-0.505197,-0.510516,-0.517770,-0.510839,-0.510678,-0.511645,-0.531954,-0.516319,-0.559516,-0.531793,-0.513257,-0.522605,-0.556293,-0.514868,-0.573539,-0.527118,-0.519220,-0.545816,-0.552908,-0.513095,-0.535661,-0.510516,-0.533243,-0.503263,-0.506648,-0.517770,-0.539207,-0.519704,-0.496816,-0.488918,-0.495849,-0.543237,-0.532276,-0.497138,-0.499556,-0.500201,-0.485372,-0.491980,-0.559355,-0.491013,-0.502296,-0.503263,-0.536789,-0.517125,-0.542431,-0.520671,-0.517608,-0.511161,-0.504875,-0.484566,-0.525668,-0.532921,-0.530342,-0.489079,-0.541141,-0.494237,-0.480697,-0.534372,-0.483115,-0.517770,-0.502135,-0.460388,-0.453135,-0.449267,-0.482148,-0.449911,-0.414290,-0.386244,-0.364162,-0.415902,-0.405425,-0.384632,-0.361583,-0.333376,-0.345464,-0.367547,-0.320642,-0.322576,-0.309843,-0.318224,-0.336761,-0.319192,-0.341757,-0.314356,-0.326767,-0.291146,-0.302428,-0.293402,-0.285665,-0.252462,-0.231669,-0.212005,-0.195241,-0.188633,-0.149304,-0.145919,-0.157363,-0.200399,-0.222804,-0.232475,-0.292596,-0.347237,-0.360938,-0.414612,-0.395593,-0.462967,-0.480859,-0.525184,-0.538724,-0.517770,-0.571283,-0.528730,-0.533243,-0.569348,-0.526312,-0.491658,-0.486178,-0.466836,-0.485694,-0.464257,-0.416546,-0.383343,-0.376412,-0.413323,-0.359971,-0.403652,-0.373672,-0.367063,-0.393014,-0.405908,-0.448300,-0.459744,-0.447494,-0.468286,-0.460872,-0.512612,-0.502135,-0.552585,-0.539529,-0.537273,-0.528085,-0.516803,-0.550006,-0.572572,-0.540335,-0.553391,-0.541947,-0.530987,-0.527441,-0.526312,-0.558388,-0.563223,-0.534855,-0.536145,-0.525668,-0.561128,-0.584661,-0.530342,-0.520993,-0.536789,-0.528569,-0.581276,-0.537756,-0.554197,-0.544043,-0.563223,-0.562417,-0.505520,-0.525345,-0.540335,-0.496010,-0.529858,-0.548233,-0.547427,-0.534372,-0.521316,-0.553875,-0.551135,-0.561289,-0.556937,-0.552424,-0.531793,-0.506326,-0.505681,-0.519220,-0.517447,-0.503585,-0.495849,-0.560000,-0.497138,-0.539852,-0.515030,-0.502457,-0.505520,-0.507132,-0.498750,-0.502296,-0.525506,-0.533243,-0.481826,-0.513418,-0.500039,-0.543559,-0.508743,-0.492303,-0.508582,-0.541464,-0.500684,-0.497944,-0.507293,-0.505197,-0.545332,-0.499395,-0.496010,-0.506003,-0.539529,-0.509549,-0.496655,-0.497783,-0.492625,-0.525829,-0.522766,-0.514868,-0.477957,-0.478602,-0.483276,-0.515352,-0.485372,-0.470543,-0.490530,-0.522283,-0.464901,-0.466513,-0.465546,-0.517286,-0.455875,-0.459421,-0.477635,-0.502941,-0.510355,-0.517608,-0.470704,-0.463773,-0.469092,-0.469898,-0.457165,-0.484566,-0.510033,-0.458615,-0.481181,-0.475217,-0.491980,-0.451684,-0.447977,-0.491658,-0.455230,-0.447977,-0.460549,-0.461678,-0.486661,-0.437178,-0.492141,-0.478924,-0.437661,-0.435405,-0.478280,-0.437339,-0.463128,-0.442497,-0.469415,-0.468931,-0.425089,-0.435566,-0.471994,-0.461033,-0.441369,-0.463934,-0.454263,-0.409777,-0.459099,-0.466191,-0.403329,-0.410260,-0.414290,-0.401718,-0.449750,-0.427507,-0.447171,-0.400428,-0.453619,-0.407037,-0.403007,-0.410260,-0.444270,-0.416546,-0.427829,-0.437339,-0.434599,-0.412678,-0.438467,-0.430892,-0.429763,-0.440240,-0.417513,-0.385922,-0.408004,-0.439918,-0.397527,-0.408487,-0.437339,-0.438467,-0.425089,-0.410744,-0.444431,-0.416063,-0.463128,-0.444109,-0.409777,-0.415096,-0.420576,-0.408004,-0.426379,-0.443303,-0.438790,-0.409938,-0.457809,-0.412194,-0.452652,-0.466030,-0.461033,-0.408648,-0.415257,-0.407842,-0.405425,-0.429441,-0.409132,-0.407520,-0.420254,-0.414773,-0.455230,-0.460388,-0.426379,-0.430569,-0.424928,-0.437984,-0.469576,-0.421382,-0.423638,-0.474250,-0.430731,-0.433309,-0.444592,-0.483760,-0.434277,-0.432504,-0.455714,-0.451523,-0.460711,-0.462806,-0.497461,-0.494076,-0.479730,-0.520671,-0.471994,-0.508905,-0.523411,-0.498266,-0.476507,-0.529052,-0.494076,-0.487628,-0.499556,-0.530826,-0.490207,-0.522283,-0.518414,-0.499556,-0.557904,-0.509227,-0.561773,-0.519220,-0.554197,-0.520832,-0.505842,-0.518898,-0.563707,-0.510839,-0.533888,-0.585306,-0.575635,-0.536628,-0.549684,-0.548556,-0.542592,-0.574829,-0.584822,-0.585789,-0.546460,-0.596105,-0.592881,-0.579181,-0.599973,-0.585306,-0.564191,-0.549039,-0.596427,-0.565319,-0.574184,-0.561128,-0.558388,-0.596588,-0.563707,-0.583694,-0.553552,-0.559516,-0.565964,-0.564191,-0.584338,-0.559194,-0.598361,-0.581760,-0.610611,-0.561128,-0.560000,-0.562256,-0.574506,-0.597233,-0.584661,-0.619315,-0.598039,-0.555003,-0.555970,-0.573862,-0.597394,-0.538240,-0.551296,-0.577730,-0.538240,-0.559516,-0.593365,-0.602713,-0.607871,-0.596911,-0.553069,-0.562256,-0.567414,-0.573378,-0.595138,-0.562579,-0.550168,-0.587562,-0.541786,-0.557098,-0.559839,-0.536145,-0.565964,-0.590141,-0.572733,-0.548878,-0.613513,-0.581115,-0.582082,-0.547105,-0.543720,-0.534049,-0.556776,-0.550490,-0.548717,-0.535016,-0.546138,-0.541625,-0.532115,-0.540658,-0.583533,-0.543075,-0.549039,-0.591592,-0.585789,-0.583210,-0.550329,-0.544204,-0.573700,-0.580792,-0.564352,-0.537273,-0.522444,-0.540013,-0.571444,-0.529052,-0.545654,-0.569671,-0.545816,-0.543881,-0.587079,-0.574506,-0.545977,-0.537112,-0.551779,-0.572572,-0.579019,-0.575957,-0.525345,-0.522283,-0.587401,-0.582565,-0.569510,-0.591108,-0.537273,-0.540497,-0.542914,-0.559355,-0.572572,-0.568220,-0.536628,-0.566447,-0.518253,-0.525506,-0.563062,-0.568059,-0.516480,-0.545010,-0.525184,-0.573862,-0.535177,-0.526151,-0.548717,-0.566125,-0.532276,-0.578052,-0.576924,-0.532760,-0.531309,-0.551941,-0.572894,-0.529536,-0.529536,-0.517931,-0.564029,-0.519865,-0.532115,-0.578536,-0.517931,-0.528247,-0.577730,-0.574506,-0.576924,-0.533243,-0.540174
 13:22:39.,-0.553230,-0.576440,-0.593365,-0.549200,-0.531470,-0.543075,-0.561450,-0.524862,-0.540013,-0.538562,-0.530826,-0.508743,-0.569026,-0.515513,-0.555003,-0.539046,-0.529375,-0.533082,-0.512773,-0.571283,-0.543075,-0.533566,-0.522283,-0.515030,-0.528569,-0.529052,-0.578536,-0.518898,-0.512289,-0.533727,-0.541625,-0.556293,-0.530987,-0.557904,-0.557260,-0.504069,-0.527279,-0.555164,-0.530826,-0.530987,-0.560483,-0.510194,-0.514385,-0.564996,-0.510839,-0.535500,-0.514062,-0.519220,-0.524862,-0.502618,-0.523250,-0.507454,-0.553714,-0.515513,-0.493592,-0.564835,-0.519704,-0.525023,-0.552102,-0.563062,-0.529697,-0.522283,-0.520510,-0.516319,-0.547911,-0.560806,-0.514546,-0.517125,-0.508099,-0.545171,-0.521477,-0.485372,-0.527279,-0.554036,-0.524378,-0.547427,-0.557743,-0.554842,-0.520671,-0.529536,-0.513418,-0.552424,-0.503747,-0.552424,-0.523411,-0.497622,-0.500684,-0.551457,-0.491980,-0.504875,-0.516158,-0.563868,-0.558388,-0.517608,-0.521477,-0.512128,-0.508421,-0.546138,-0.506003,-0.509388,-0.535983,-0.506003,-0.484727,-0.532760,-0.495526,-0.527924,-0.498105,-0.510033,-0.544365,-0.531148,-0.492141,-0.509066,-0.535016,-0.507776,-0.542270,-0.508582,-0.488757,-0.530664,-0.502780,-0.517770,-0.493270,-0.535016,-0.466352,-0.494882,-0.544687,-0.495526,-0.515513,-0.536950,-0.540658,-0.508905,-0.514707,-0.500039,-0.504714,-0.506326,-0.500684,-0.499072,-0.529858,-0.496655,-0.542592,-0.486016,-0.540013,-0.496171,-0.497461,-0.498105,-0.495043,-0.494720,-0.490046,-0.508099,-0.544848,-0.491336,-0.526474,-0.524378,-0.496171,-0.480697,-0.532760,-0.496655,-0.524539,-0.507454,-0.545654,-0.517608,-0.494237,-0.498105,-0.502296,-0.490530,-0.497622,-0.543881,-0.513901,-0.495043,-0.480859,-0.525345,-0.475056,-0.473767,-0.539046,-0.521316,-0.492625,-0.546460,-0.525184,-0.498428,-0.494076,-0.548878,-0.537112,-0.488918,-0.494076,-0.554358,-0.483921,-0.478118,-0.533888,-0.477957,-0.527441,-0.500201,-0.485049,-0.536789,-0.495043,-0.518414,-0.540335,-0.498750,-0.545654,-0.518253,-0.533243,-0.523250,-0.534372,-0.495204,-0.470059,-0.530664,-0.495849,-0.471510,-0.485533,-0.534210,-0.518737,-0.514707,-0.489079,-0.532437,-0.518898,-0.497944,-0.510194,-0.471349,-0.488757,-0.502780,-0.482954,-0.477474,-0.525668,-0.491497,-0.508905,-0.501974,-0.465224,-0.490207,-0.481987,-0.473928,-0.476829,-0.500201,-0.516964,-0.457165,-0.495365,-0.484405,-0.501974,-0.456198,-0.438467,-0.488112,-0.454263,-0.457165,-0.416546,-0.478280,-0.463128,-0.460711,-0.445559,-0.470865,-0.472477,-0.458776,-0.440885,-0.430731,-0.410583,-0.469576,-0.441207,-0.461355,-0.449750,-0.450717,-0.444592,-0.448944,-0.457003,-0.443786,-0.450395,-0.431214,-0.484243,-0.454908,-0.452007,-0.429441,-0.480697,-0.480053,-0.422188,-0.437339,-0.475540,-0.449267,-0.433632,-0.449267,-0.471671,-0.431698,-0.445237,-0.442658,-0.451201,-0.460549,-0.455230,-0.452652,-0.470221,-0.509710,-0.508743,-0.451362,-0.494559,-0.485049,-0.502618,-0.476829,-0.494398,-0.489724,-0.483599,-0.493431,-0.497944,-0.533082,-0.508743,-0.536145,-0.519865,-0.524862,-0.488595,-0.505681,-0.466030,-0.488112,-0.482632,-0.525668,-0.540013,-0.490207,-0.522605,-0.509066,-0.495204,-0.487628,-0.547427,-0.538240,-0.501168,-0.532276,-0.490530,-0.514707,-0.503908,-0.484566,-0.540013,-0.489401,-0.516803,-0.526957,-0.541625,-0.521960,-0.544687,-0.505520,-0.505842,-0.539207,-0.486500,-0.489079,-0.519543,-0.530181,-0.509066,-0.501651,-0.536950,-0.486339,-0.490046,-0.500523,-0.495526,-0.538240,-0.536789,-0.491174,-0.530664,-0.536467,-0.516964,-0.541625,-0.495043,-0.503747,-0.487951,-0.477474,-0.517286,-0.495849,-0.516480,-0.527763,-0.534372,-0.522122,-0.525990,-0.515030,-0.495526,-0.498266,-0.490691,-0.520832,-0.492786,-0.499072,-0.506326,-0.533082,-0.538401,-0.528891,-0.496171,-0.530826,-0.527279,-0.492303,-0.488112,-0.501974,-0.508260,-0.511161,-0.495849,-0.496977,-0.552424,-0.491174,-0.497622,-0.507776,-0.484888,-0.484566,-0.525023,-0.488434,-0.494720,-0.504391,-0.486661,-0.485533,-0.453941,-0.498911,-0.461194,-0.472155,-0.422188,-0.411066,-0.445076,-0.384310,-0.379474,-0.407520,-0.363033,-0.378829,-0.366902,-0.342886,-0.312261,-0.319353,-0.353040,-0.315968,-0.315484,-0.320803,-0.323221,-0.310004,-0.311294,-0.362066,-0.346432,-0.301945,-0.311616,-0.294047,-0.272610,-0.308231,-0.296304,-0.262777,-0.205235,-0.209748,-0.164778,-0.200238,-0.184120,-0.182508,-0.239245,-0.257781,-0.273577,-0.297754,-0.333537,-0.401556,-0.448944,-0.442819,-0.443142,-0.469415,-0.524862,-0.501651,-0.507454,-0.554681,-0.551941,-0.550168,-0.512773,-0.536789,-0.523733,-0.483438,-0.457971,-0.470865,-0.410583,-0.421382,-0.397366,-0.356909,-0.357392,-0.344175,-0.346109,-0.348688,-0.407842,-0.361260,-0.380119,-0.444270,-0.422188,-0.466352,-0.486178,-0.484405,-0.515997,-0.484888,-0.481826,-0.528085,-0.492141,-0.515835,-0.526796,-0.509066,-0.518253,-0.563707,-0.519704,-0.510194,-0.526151,-0.515835,-0.500845,-0.505197,-0.502780,-0.523572,-0.532760,-0.550006,-0.485211,-0.492303,-0.515674,-0.506164,-0.509227,-0.515997,-0.515030,-0.509872,-0.555325,-0.518898,-0.498589,-0.498750,-0.553714,-0.549845,-0.532115,-0.488918,-0.505681,-0.536789,-0.487467,-0.497944,-0.503747,-0.501812,-0.502941,-0.509066,-0.547427,-0.535822,-0.515997,-0.536145,-0.493109,-0.554197,-0.500039,-0.533082,-0.480859,-0.541302,-0.523895,-0.507937,-0.492786,-0.487790,-0.525023,-0.481020,-0.488273,-0.473767,-0.486178,-0.520349,-0.474411,-0.477957,-0.504230,-0.509710,-0.503263,-0.466191,-0.470704,-0.506648,-0.494398,-0.483276,-0.523250,-0.519059,-0.473605,-0.522122,-0.525345,-0.469253,-0.496977,-0.483921,-0.503585,-0.514868,-0.475540,-0.487306,-0.463128,-0.474895,-0.484888,-0.486984,-0.517931,-0.462484,-0.494398,-0.484888,-0.459421,-0.489240,-0.498750,-0.468770,-0.506487,-0.462323,-0.516803,-0.471671,-0.502135,-0.463451,-0.513095,-0.458454,-0.446527,-0.460227,-0.460711,-0.454263,-0.457487,-0.460872,-0.499072,-0.439112,-0.490691,-0.444431,-0.465546,-0.480536,-0.479892,-0.432181,-0.450073,-0.420092,-0.488757,-0.427990,-0.476507,-0.478924,-0.433148,-0.472799,-0.437017,-0.432826,-0.468125,-0.469576,-0.440079,-0.434438,-0.435566,-0.453941,-0.469898,-0.453780,-0.416224,-0.427990,-0.428958,-0.456842,-0.423638,-0.403491,-0.398333,-0.439434,-0.468125,-0.398494,-0.427668,-0.402362,-0.399461,-0.447171,-0.381086,-0.403329,-0.403974,-0.422994,-0.387050,-0.405425,-0.431053,-0.432665,-0.387695,-0.427829,-0.390596,-0.387533,-0.405102,-0.380280,-0.380602,-0.429602,-0.432987,-0.381892,-0.365129,-0.423638,-0.382537,-0.376734,-0.385277,-0.389951,-0.376251,-0.426862,-0.438790,-0.375928,-0.409938,-0.371576,-0.426379,-0.410260,-0.416708,-0.442658,-0.367547,-0.370287,-0.383987,-0.431536,-0.395270,-0.387533,-0.415257,-0.429602,-0.383826,-0.439757,-0.393981,-0.419448,-0.387211,-0.402362,-0.387050,-0.386566,-0.396076,-0.396076,-0.460066,-0.413000,-0.444270,-0.422349,-0.397688,-0.439918,-0.409938,-0.430247,-0.416224,-0.451362,-0.439434,-0.443303,-0.433471,-0.468447,-0.456520,-0.454586,-0.446688,-0.447494,-0.452329,-0.477957,-0.453941,-0.459099,-0.480053,-0.508743,-0.504391,-0.456198,-0.474250,-0.523572,-0.473605,-0.524217,-0.523572,-0.501651,-0.527441,-0.503908,-0.513901,-0.480214,-0.516319,-0.551618,-0.504714,-0.508582,-0.516319,-0.552102,-0.569026,-0.569510,-0.515674,-0.516964,-0.577569,-0.524378,-0.544526,-0.520993,-0.526957,-0.575796,-0.533566,-0.578536,-0.598684,-0.588852,-0.588852,-0.552585,-0.580954,-0.557260,-0.569187,-0.568704,-0.553391,-0.569510,-0.566608,-0.554036,-0.586434,-0.569187,-0.555003,-0.608355,-0.571927,-0.578858,-0.555325,-0.589335,-0.551779,-0.592398,-0.547589,-0.585467,-0.597072,-0.577569,-0.557582,-0.548878,-0.526796,-0.530503,-0.593687,-0.589174,-0.548556,-0.537756,-0.557582,-0.580309,-0.563385,-0.598200,-0.584338,-0.610611,-0.585306,-0.554358,-0.556615,-0.552263,-0.548233,-0.576279,-0.606582,-0.603036,-0.554681,-0.555003,-0.557260,-0.556776,-0.551779,-0.555648,-0.589496,-0.589496,-0.594171,-0.591592,-0.539529,-0.555325,-0.556937,-0.545493,-0.528891,-0.560000,-0.548717,-0.585950,-0.551941,-0.540497,-0.543398,-0.557582,-0.546944,-0.579664,-0.577408,-0.544687,-0.594009,-0.582727,-0.581598,-0.596266,-0.586756,-0.557260,-0.596588,-0.549039,-0.580792,-0.559194,-0.555648,-0.571927,-0.587562,-0.551941,-0.600779,-0.544204,-0.565641,-0.555325,-0.539852,-0.541141,-0.540658,-0.583049,-0.552746,-0.582727,-0.550490,-0.535983,-0.540819,-0.555809,-0.559839,-0.552102,-0.595621,-0.554842,-0.579342,-0.547105,-0.558388,-0.538724,-0.524378,-0.581276,-0.565480,-0.523089,-0.586595,-0.556131,-0.529214,-0.534533,-0.576763,-0.539691,-0.525829,-0.532115,-0.539529,-0.525990,-0.567253,-0.533243,-0.542592,-0.564513,-0.549039,-0.529858,-0.566286,-0.532599,-0.541786,-0.560322,-0.577246,-0.539046,-0.532599,-0.581115,-0.581921,-0.522122,-0.506648,-0.537595,-0.513257,-0.507615,-0.523733,-0.555809,-0.564996,-0.566286,-0.587723,-0.563868,-0.518414,-0.563707,-0.530503,-0.563546,-0.532760,-0.548072,-0.563707,-0.563868,-0.534210,-0.568704,-0.512773,-0.564352,-0.521477,-0.582727,-0.568865,-0.543720,-0.553875,-0.571927,-0.526474,-0.577730,-0.560644,-0.524539,-0.525829,-0.576279,-0.532921,-0.523250,-0.564835,-0.512773,-0.523411,-0.544365,-0.542914,-0.523411,-0.562417,-0.533404,-0.528891,-0.533082,-0.548233,-0.534372,-0.547911,-0.568381,-0.523089,-0.514385,-0.580631,-0.556937,-0.514707,-0.539529,-0.530503,-0.528569,-0.522122,-0.565641,-0.570960,-0.539207,-0.573217,-0.521960,-0.539368,-0.533727,-0.555164,-0.553552,-0.527763,-0.515513,-0.567898,-0.545010,-0.547589,-0.537434,-0.522444,-0.569832,-0.563062,-0.542431,-0.525990,-0.548233,-0.531793,-0.555648,-0.514868,-0.565480,-0.515835,-0.508582,-0.524862,-0.551296,-0.501974,-0.520026,-0.521316,-0.553069,-0.545171,-0.567737,-0.526635,-0.526796,-0.516641,-0.531954,-0.519220,-0.516158,-0.519865,-0.518414,-0.501651,-0.509388,-0.559677,-0.506648,-0.535177,-0.511000,-0.550168,-0.492947,-0.524217,-0.542914,-0.501329,-0.552263,-0.517447,-0.528247,-0.517608,-0.524862,-0.548556,-0.524701,-0.498589,-0.563223,-0.506809,-0.537756,-0.546944,-0.562740,-0.504069,-0.553552,-0.532115,-0.524701,-0.509388,-0.510839,-0.515030,-0.535500
 13:22:40.,-0.541302,-0.511000,-0.491336,-0.523733,-0.533888,-0.495526,-0.490368,-0.487790,-0.503424,-0.532760,-0.540174,-0.519865,-0.517125,-0.501168,-0.555325,-0.516480,-0.551618,-0.497461,-0.524539,-0.499395,-0.492464,-0.488595,-0.495688,-0.543075,-0.526796,-0.499072,-0.494237,-0.497622,-0.483115,-0.490368,-0.536628,-0.509549,-0.494882,-0.491174,-0.522283,-0.544848,-0.505036,-0.524217,-0.536789,-0.487467,-0.528247,-0.532599,-0.494237,-0.505681,-0.493431,-0.552908,-0.495043,-0.534049,-0.484082,-0.531631,-0.511483,-0.524701,-0.540174,-0.492303,-0.516158,-0.477635,-0.483438,-0.537434,-0.472155,-0.499878,-0.491980,-0.491980,-0.503908,-0.536145,-0.494076,-0.486500,-0.480859,-0.480053,-0.469253,-0.481181,-0.517286,-0.496010,-0.476990,-0.495849,-0.466997,-0.461517,-0.465869,-0.501007,-0.461033,-0.457971,-0.504069,-0.490207,-0.480214,-0.462645,-0.494076,-0.441530,-0.448944,-0.447816,-0.452490,-0.437017,-0.437339,-0.475056,-0.460388,-0.441852,-0.497299,-0.455392,-0.454263,-0.457648,-0.460711,-0.451523,-0.451362,-0.454908,-0.447494,-0.455230,-0.484727,-0.452974,-0.471832,-0.444109,-0.446527,-0.490207,-0.486984,-0.493753,-0.457487,-0.496493,-0.486984,-0.493592,-0.442497,-0.441530,-0.506648,-0.447977,-0.449428,-0.491980,-0.511645,-0.489401,-0.499556,-0.517286,-0.465385,-0.522444,-0.504391,-0.528085,-0.545816,-0.526957,-0.503263,-0.510678,-0.511322,-0.558549,-0.554520,-0.516964,-0.548233,-0.527924,-0.558388,-0.528085,-0.544043,-0.522122,-0.530342,-0.564996,-0.574506,-0.578536,-0.528730,-0.534855,-0.517125,-0.552908,-0.548878,-0.509710,-0.530181,-0.570154,-0.529858,-0.528247,-0.560806,-0.533243,-0.518576,-0.564835,-0.565964,-0.545010,-0.514224,-0.544365,-0.523572,-0.502135,-0.532276,-0.504069,-0.544848,-0.539529,-0.484566,-0.494237,-0.507132,-0.496816,-0.495043,-0.556131,-0.503424,-0.499395,-0.520187,-0.520187,-0.524862,-0.516319,-0.553391,-0.496977,-0.538724,-0.498911,-0.504714,-0.515997,-0.542592,-0.500039,-0.531793,-0.507776,-0.554681,-0.516803,-0.501651,-0.503585,-0.518092,-0.537595,-0.513095,-0.529697,-0.515191,-0.506487,-0.529052,-0.505842,-0.503908,-0.501007,-0.542108,-0.501329,-0.552263,-0.507615,-0.509227,-0.498266,-0.507937,-0.561289,-0.537273,-0.496493,-0.496493,-0.499234,-0.526474,-0.492303,-0.495688,-0.497944,-0.540980,-0.509710,-0.550329,-0.500039,-0.494398,-0.540497,-0.524217,-0.496332,-0.493270,-0.516158,-0.471510,-0.512128,-0.496010,-0.499717,-0.438306,-0.439112,-0.413484,-0.402685,-0.454908,-0.415257,-0.369803,-0.372221,-0.408326,-0.353040,-0.338050,-0.346915,-0.391241,-0.357714,-0.323705,-0.324188,-0.344497,-0.319836,-0.328057,-0.331764,-0.330958,-0.336277,-0.371737,-0.373510,-0.303396,-0.332409,-0.254718,-0.271159,-0.224899,-0.185570,-0.170258,-0.169452,-0.162199,-0.189117,-0.218935,-0.240373,-0.292757,-0.320159,-0.392530,-0.386566,-0.429602,-0.470059,-0.471349,-0.501168,-0.524701,-0.572250,-0.568542,-0.535177,-0.555325,-0.552424,-0.514385,-0.499072,-0.500362,-0.495365,-0.483276,-0.462161,-0.443464,-0.480859,-0.413323,-0.394464,-0.422994,-0.359487,-0.346109,-0.353362,-0.353362,-0.364645,-0.374155,-0.443786,-0.430408,-0.461355,-0.447171,-0.455069,-0.468125,-0.493109,-0.510355,-0.499717,-0.507454,-0.561773,-0.553714,-0.521316,-0.558388,-0.523089,-0.522605,-0.521960,-0.523572,-0.563868,-0.578858,-0.547911,-0.558710,-0.532921,-0.542431,-0.560000,-0.530987,-0.527441,-0.536145,-0.523895,-0.529697,-0.516480,-0.511161,-0.549039,-0.518737,-0.526151,-0.502296,-0.506809,-0.550812,-0.552263,-0.543720,-0.535500,-0.530181,-0.502618,-0.555164,-0.517286,-0.542592,-0.510839,-0.521316,-0.516158,-0.524701,-0.525023,-0.567253,-0.550490,-0.555809,-0.538885,-0.548717,-0.544848,-0.516803,-0.554358,-0.506809,-0.517286,-0.507454,-0.546783,-0.501651,-0.506970,-0.515030,-0.497622,-0.521799,-0.548395,-0.498428,-0.514707,-0.556454,-0.510355,-0.496010,-0.531309,-0.529858,-0.538562,-0.495365,-0.499234,-0.518576,-0.521477,-0.549845,-0.500845,-0.515352,-0.520671,-0.488918,-0.491980,-0.539046,-0.531631,-0.488434,-0.513740,-0.484082,-0.478763,-0.486178,-0.473122,-0.509388,-0.495849,-0.475862,-0.488434,-0.460872,-0.472477,-0.496655,-0.499395,-0.512773,-0.511000,-0.516158,-0.516964,-0.479730,-0.470382,-0.470704,-0.471510,-0.518576,-0.513257,-0.430408,-0.457165,-0.463290,-0.440240,-0.471188,-0.462806,-0.457003,-0.491013,-0.481181,-0.450878,-0.456036,-0.452974,-0.434277,-0.441852,-0.477796,-0.484243,-0.497461,-0.454908,-0.439434,-0.440079,-0.449267,-0.460711,-0.441369,-0.435727,-0.424122,-0.435566,-0.433471,-0.434277,-0.439596,-0.445237,-0.457648,-0.427023,-0.418481,-0.421865,-0.454747,-0.462161,-0.426056,-0.418319,-0.464740,-0.457003,-0.457326,-0.411066,-0.407359,-0.421221,-0.403329,-0.408810,-0.435405,-0.439112,-0.402846,-0.428152,-0.452813,-0.413162,-0.392852,-0.414773,-0.386405,-0.447655,-0.420576,-0.452813,-0.410260,-0.440724,-0.442497,-0.421865,-0.404619,-0.422994,-0.440885,-0.431859,-0.395593,-0.456359,-0.439757,-0.423477,-0.409132,-0.397527,-0.396560,-0.449589,-0.440402,-0.452007,-0.403007,-0.444431,-0.410583,-0.430892,-0.441530,-0.454425,-0.423477,-0.418158,-0.417513,-0.436694,-0.393497,-0.442658,-0.416063,-0.452974,-0.451201,-0.476345,-0.461678,-0.419609,-0.438629,-0.495204,-0.475378,-0.480214,-0.429119,-0.453619,-0.465063,-0.431698,-0.438790,-0.425250,-0.438467,-0.445882,-0.453457,-0.454263,-0.449267,-0.512934,-0.472316,-0.489401,-0.461839,-0.467642,-0.470865,-0.514707,-0.527279,-0.469737,-0.461839,-0.516319,-0.483115,-0.516641,-0.489563,-0.541786,-0.506487,-0.544204,-0.557904,-0.506164,-0.516480,-0.559677,-0.554842,-0.545493,-0.549200,-0.504714,-0.538240,-0.495688,-0.557098,-0.549684,-0.509710,-0.517608,-0.531309,-0.532760,-0.519865,-0.533243,-0.571444,-0.558227,-0.582565,-0.567414,-0.538724,-0.530664,-0.546460,-0.553552,-0.559839,-0.570960,-0.577085,-0.550973,-0.542753,-0.553875,-0.560644,-0.589819,-0.595138,-0.581276,-0.596427,-0.558710,-0.556776,-0.600618,-0.554681,-0.550812,-0.565964,-0.562417,-0.592075,-0.593526,-0.579825,-0.553230,-0.603680,-0.566125,-0.570477,-0.566931,-0.575312,-0.572894,-0.607549,-0.566447,-0.609483,-0.567092,-0.578375,-0.560000,-0.545977,-0.584177,-0.594654,-0.562901,-0.557098,-0.576602,-0.557904,-0.589658,-0.558066,-0.603036,-0.593526,-0.595621,-0.538401,-0.597394,-0.551457,-0.535983,-0.559194,-0.564029,-0.542270,-0.545010,-0.556776,-0.551135,-0.554036,-0.557098,-0.558388,-0.585950,-0.563062,-0.544043,-0.546460,-0.538240,-0.544687,-0.548395,-0.556937,-0.544848,-0.539046,-0.584338,-0.582082,-0.552102,-0.565964,-0.549684,-0.592720,-0.551618,-0.550812,-0.590463,-0.533727,-0.596427,-0.529697,-0.531793,-0.537918,-0.538885,-0.545816,-0.579825,-0.596750,-0.572733,-0.561934,-0.564835,-0.545332,-0.575312,-0.555809,-0.570477,-0.540174,-0.581760,-0.581598,-0.531309,-0.574506,-0.594171,-0.530342,-0.525184,-0.528730,-0.548878,-0.537112,-0.583210,-0.550006,-0.564352,-0.579181,-0.550812,-0.549200,-0.556776,-0.542914,-0.593042,-0.572894,-0.571927,-0.537112,-0.523733,-0.573056,-0.532276,-0.553391,-0.561450,-0.570154,-0.537756,-0.567575,-0.562579,-0.543398,-0.573862,-0.532760,-0.538401,-0.587723,-0.530020,-0.544043,-0.591269,-0.529214,-0.543075,-0.546944,-0.578375,-0.568220,-0.568865,-0.552263,-0.575635,-0.534210,-0.545493,-0.584338,-0.540174,-0.541947,-0.583855,-0.545654,-0.530020,-0.535500,-0.526312,-0.541464,-0.568220,-0.577246,-0.528085,-0.585467,-0.560644,-0.566286,-0.540497,-0.579181,-0.554842,-0.570315,-0.544204,-0.529052,-0.515191,-0.520510,-0.537756,-0.530020,-0.523250,-0.518253,-0.575635,-0.520026,-0.568542,-0.526796,-0.566286,-0.524862,-0.538724,-0.539852,-0.560967,-0.517770,-0.547427,-0.523089,-0.514385,-0.542592,-0.533888,-0.560322,-0.561934,-0.532437,-0.556615,-0.528730,-0.542270,-0.527279,-0.533082,-0.534533,-0.535177,-0.535983,-0.512128,-0.560967,-0.533888,-0.518414,-0.521960,-0.525668,-0.529858,-0.528891,-0.575957,-0.529697,-0.534049,-0.530987,-0.577891,-0.529858,-0.517286,-0.574023,-0.553714,-0.516641,-0.571605,-0.571927,-0.502780,-0.524539,-0.534694,-0.514546,-0.506809,-0.548717,-0.526635,-0.509549,-0.511483,-0.518898,-0.508743,-0.516964,-0.521477,-0.559839,-0.501812,-0.522928,-0.516480,-0.495365,-0.496332,-0.558710,-0.535339,-0.515352,-0.555164,-0.526151,-0.532276,-0.521477,-0.553552,-0.533404,-0.537434,-0.566608,-0.522928,-0.506648,-0.514707,-0.555648,-0.504553,-0.521960,-0.506164,-0.522766,-0.551618,-0.544365,-0.525345,-0.509549,-0.546944,-0.517608,-0.506326,-0.501974,-0.551135,-0.568059,-0.492464,-0.502941,-0.555970,-0.532276,-0.526957,-0.511161,-0.503263,-0.495688,-0.554842,-0.506809,-0.538885,-0.518253,-0.561934,-0.519381,-0.502941,-0.504391,-0.519865,-0.502296,-0.514868,-0.511161,-0.551618,-0.515191,-0.514224,-0.511806,-0.504714,-0.540819,-0.557421,-0.555809,-0.521960,-0.515997,-0.516158,-0.504553,-0.535339,-0.542753,-0.530503,-0.508743,-0.511322,-0.543881,-0.497138,-0.526635,-0.554358,-0.534049,-0.539046,-0.513095,-0.511161,-0.508905,-0.502296,-0.509872,-0.504553,-0.540013,-0.504069,-0.488273,-0.527602,-0.545171,-0.540174,-0.486339,-0.488112,-0.505359,-0.516964,-0.487145,-0.519543,-0.540013,-0.476990,-0.524539,-0.521638,-0.476990,-0.504391,-0.472477,-0.479730,-0.505520,-0.471832,-0.480859,-0.475701,-0.452329,-0.471026,-0.477796,-0.465707,-0.492625,-0.509710,-0.456681,-0.459744,-0.460872,-0.497299,-0.436694,-0.442819,-0.491658,-0.497622,-0.443142,-0.481503,-0.453457,-0.441691,-0.442497,-0.455714,-0.441046,-0.466674,-0.422349,-0.425411,-0.419770,-0.424606,-0.431053,-0.404458,-0.426379,-0.418803,-0.422510,-0.460549,-0.475862,-0.484888,-0.427507,-0.444754,-0.453135,-0.441691,-0.478924,-0.489401,-0.500201,-0.468286,-0.499556,-0.500362,-0.444754,-0.478602,-0.505036,-0.495526,-0.481987,-0.472477,-0.473767,-0.477313,-0.456520,-0.490691,-0.489079,-0.479892,-0.510839,-0.513579,-0.497944,-0.482148,-0.480697,-0.490368,-0.535016,-0.503263,-0.499556,-0.537756,-0.512451,-0.566125,-0.505036,-0.515030,-0.514062,-0.558710,-0.527763,-0.507132,-0.567737,-0.524862,-0.516964,-0.500201,-0.498105,-0.536467,-0.500845,-0.515030,-0.495688,-0.493270,-0.542431,-0.515352,-0.509872,-0.525990,-0.530826,-0.518898,-0.552263,-0.547427
 13:22:41.,-0.539529,-0.510033,-0.503424,-0.503747,-0.480536,-0.482148,-0.534210,-0.492625,-0.495204,-0.499234,-0.550329,-0.537112,-0.547589,-0.538885,-0.556615,-0.534855,-0.503263,-0.548556,-0.539207,-0.534694,-0.524539,-0.524378,-0.485855,-0.542753,-0.548072,-0.543720,-0.550973,-0.501651,-0.550490,-0.495043,-0.502135,-0.549362,-0.492625,-0.492947,-0.501168,-0.502618,-0.502780,-0.506164,-0.505681,-0.533082,-0.507937,-0.498428,-0.506487,-0.517447,-0.506970,-0.513740,-0.510355,-0.540980,-0.495526,-0.535661,-0.532115,-0.531954,-0.503908,-0.530664,-0.534855,-0.509549,-0.499717,-0.535177,-0.501329,-0.499556,-0.534855,-0.486178,-0.535661,-0.528730,-0.467158,-0.455875,-0.458938,-0.446365,-0.433632,-0.435405,-0.407198,-0.422994,-0.380602,-0.363033,-0.392530,-0.380441,-0.339340,-0.332570,-0.354007,-0.327251,-0.397204,-0.320803,-0.362228,-0.342563,-0.340790,-0.335310,-0.332731,-0.353846,-0.359487,-0.332892,-0.334504,-0.349655,-0.297915,-0.322576,-0.290340,-0.300655,-0.223610,-0.236343,-0.183153,-0.189761,-0.145436,-0.195564,-0.211843,-0.232314,-0.209748,-0.257297,-0.296304,-0.370126,-0.386727,-0.431536,-0.437984,-0.472961,-0.530826,-0.548395,-0.560483,-0.524056,-0.535177,-0.522122,-0.549200,-0.559677,-0.500845,-0.533243,-0.469092,-0.512289,-0.445882,-0.428635,-0.399461,-0.374155,-0.355458,-0.396076,-0.383181,-0.339340,-0.382375,-0.359165,-0.353524,-0.414773,-0.403007,-0.417997,-0.454425,-0.485049,-0.463612,-0.491013,-0.489563,-0.544526,-0.516803,-0.509066,-0.508099,-0.518898,-0.513095,-0.541141,-0.513579,-0.544365,-0.542914,-0.489724,-0.506164,-0.516641,-0.488918,-0.551457,-0.514707,-0.507132,-0.533888,-0.558066,-0.569671,-0.528247,-0.507615,-0.513257,-0.506164,-0.509227,-0.539691,-0.552746,-0.496655,-0.503585,-0.540013,-0.544204,-0.502457,-0.552424,-0.546299,-0.514224,-0.535822,-0.536950,-0.548556,-0.531470,-0.536628,-0.528408,-0.496171,-0.491980,-0.499234,-0.533727,-0.487628,-0.506487,-0.555003,-0.533888,-0.539207,-0.513095,-0.496816,-0.542753,-0.545332,-0.527118,-0.496493,-0.494559,-0.503102,-0.498911,-0.481987,-0.496332,-0.489724,-0.523250,-0.517447,-0.480375,-0.482954,-0.479408,-0.491336,-0.513257,-0.522122,-0.516964,-0.511967,-0.533243,-0.508743,-0.476023,-0.504553,-0.464740,-0.497622,-0.496332,-0.513257,-0.460549,-0.492303,-0.481503,-0.473122,-0.457003,-0.499556,-0.508905,-0.478924,-0.489724,-0.468447,-0.498589,-0.448138,-0.460066,-0.487467,-0.494237,-0.455553,-0.491013,-0.511322,-0.501974,-0.499072,-0.474895,-0.449267,-0.489079,-0.490207,-0.482309,-0.463612,-0.449589,-0.445721,-0.483438,-0.465707,-0.427668,-0.438629,-0.410260,-0.478763,-0.470704,-0.467642,-0.462806,-0.436533,-0.443303,-0.445398,-0.430731,-0.478602,-0.427990,-0.447977,-0.455714,-0.459099,-0.458776,-0.408326,-0.444109,-0.413000,-0.408165,-0.441530,-0.448622,-0.457971,-0.459905,-0.417836,-0.425411,-0.398494,-0.402685,-0.437178,-0.421060,-0.443142,-0.404941,-0.384632,-0.393336,-0.417030,-0.386083,-0.389468,-0.393658,-0.392852,-0.432181,-0.420415,-0.449105,-0.396560,-0.382537,-0.398977,-0.447010,-0.394142,-0.417191,-0.405586,-0.410744,-0.374961,-0.416063,-0.424122,-0.388017,-0.413806,-0.413806,-0.440079,-0.377540,-0.391563,-0.440240,-0.427829,-0.391079,-0.384149,-0.398010,-0.398333,-0.378346,-0.392369,-0.419770,-0.378991,-0.376734,-0.412194,-0.429441,-0.387856,-0.385599,-0.417997,-0.392047,-0.438951,-0.388662,-0.387856,-0.381570,-0.393014,-0.390918,-0.399783,-0.446849,-0.409454,-0.435244,-0.397849,-0.441691,-0.446849,-0.398816,-0.469415,-0.406231,-0.407520,-0.459421,-0.409293,-0.419931,-0.401395,-0.435244,-0.413162,-0.452329,-0.417191,-0.416708,-0.427023,-0.428958,-0.481181,-0.455230,-0.435727,-0.441207,-0.494720,-0.496655,-0.486500,-0.452007,-0.486500,-0.486178,-0.456842,-0.460227,-0.498911,-0.464418,-0.474572,-0.474250,-0.468286,-0.488595,-0.487628,-0.529052,-0.543237,-0.485533,-0.511322,-0.508421,-0.512773,-0.546460,-0.538724,-0.508260,-0.559194,-0.494237,-0.494559,-0.550329,-0.523572,-0.512451,-0.507454,-0.531793,-0.535339,-0.525506,-0.522122,-0.532760,-0.562417,-0.576440,-0.536306,-0.512773,-0.536467,-0.550812,-0.542431,-0.553391,-0.536306,-0.607871,-0.579987,-0.559516,-0.589174,-0.555164,-0.563223,-0.557421,-0.550168,-0.550490,-0.538724,-0.552102,-0.592075,-0.538724,-0.553552,-0.544848,-0.563385,-0.554842,-0.552424,-0.593687,-0.549039,-0.592720,-0.586434,-0.597878,-0.545816,-0.552585,-0.600457,-0.583855,-0.575957,-0.564513,-0.577085,-0.531470,-0.569187,-0.585789,-0.582404,-0.549684,-0.583533,-0.559677,-0.555809,-0.606743,-0.570960,-0.588690,-0.546622,-0.600940,-0.579181,-0.551618,-0.540013,-0.548072,-0.529536,-0.538079,-0.536306,-0.572250,-0.575312,-0.582404,-0.554520,-0.583694,-0.535177,-0.569671,-0.530987,-0.523089,-0.537756,-0.534372,-0.526474,-0.513418,-0.539529,-0.569187,-0.514546,-0.540980,-0.533888,-0.534049,-0.525668,-0.574667,-0.533566,-0.563223,-0.581760,-0.538885,-0.531148,-0.512612,-0.551135,-0.534372,-0.503263,-0.521477,-0.528569,-0.537112,-0.556615,-0.571927,-0.527602,-0.516641,-0.525506,-0.575312,-0.563868,-0.514546,-0.518253,-0.526957,-0.516641,-0.531793,-0.550490,-0.504553,-0.535177,-0.533082,-0.513095,-0.523411,-0.544526,-0.543075,-0.526796,-0.548072,-0.522928,-0.583533,-0.520993,-0.538562,-0.537112,-0.525506,-0.518737,-0.540497,-0.559033,-0.519865,-0.571283,-0.558710,-0.518253,-0.521638,-0.523250,-0.533243,-0.523572,-0.514224,-0.565964,-0.518898,-0.534049,-0.523089,-0.528085,-0.548395,-0.576440,-0.511645,-0.508905,-0.522605,-0.579664,-0.573056,-0.522766,-0.565319,-0.521155,-0.533243,-0.520510,-0.523250,-0.555809,-0.528408,-0.532760,-0.574829,-0.556454,-0.571444,-0.515030,-0.533888,-0.567898,-0.570477,-0.539207,-0.564513,-0.529214,-0.528569,-0.536950,-0.522122,-0.542753,-0.542592,-0.551135,-0.573378,-0.521960,-0.567253,-0.561128,-0.521960,-0.517125,-0.503102,-0.531954,-0.557743,-0.564029,-0.521155,-0.566769,-0.563707,-0.560967,-0.552585,-0.573056,-0.524378,-0.557743,-0.556937,-0.526151,-0.516480,-0.556454,-0.569510,-0.558227,-0.561289,-0.533727,-0.521799,-0.562740,-0.552424,-0.517931,-0.511483,-0.514224,-0.555970,-0.551135,-0.537756,-0.559677,-0.513418,-0.504553,-0.517770,-0.539046,-0.542431,-0.552585,-0.526796,-0.551618,-0.510033,-0.504230,-0.510516,-0.510033,-0.495849,-0.512289,-0.511322,-0.514546,-0.537273,-0.547911,-0.496171,-0.489401,-0.550168,-0.502135,-0.548395,-0.518414,-0.508421,-0.506164,-0.524217,-0.539529,-0.524539,-0.504553,-0.541786,-0.505197,-0.494237,-0.492625,-0.502780,-0.499556,-0.520671,-0.524378,-0.516641,-0.543559,-0.514224,-0.492947,-0.502296,-0.540013,-0.525990,-0.501651,-0.504391,-0.496816,-0.509549,-0.514707,-0.491819,-0.540658,-0.549523,-0.536306,-0.548878,-0.543720,-0.553230,-0.492625,-0.511161,-0.556776,-0.526796,-0.499234,-0.496493,-0.532760,-0.486822,-0.540335,-0.503263,-0.481503,-0.526796,-0.496655,-0.545010,-0.498589,-0.496171,-0.523572,-0.496171,-0.505681,-0.525668,-0.537273,-0.542431,-0.522444,-0.493753,-0.540980,-0.545654,-0.538885,-0.534049,-0.478602,-0.542270,-0.485855,-0.527118,-0.538562,-0.499072,-0.488112,-0.530987,-0.517770,-0.493914,-0.489240,-0.517125,-0.504714,-0.499556,-0.476184,-0.505520,-0.563385,-0.498105,-0.502457,-0.526474,-0.510194,-0.512289,-0.520349,-0.465063,-0.472477,-0.463290,-0.508099,-0.474572,-0.511806,-0.466352,-0.485533,-0.496655,-0.444431,-0.427990,-0.440885,-0.451201,-0.489563,-0.472799,-0.444915,-0.445398,-0.453296,-0.452813,-0.472155,-0.477151,-0.445882,-0.435082,-0.433954,-0.431536,-0.465707,-0.437823,-0.423961,-0.433148,-0.431375,-0.432826,-0.475862,-0.465707,-0.454908,-0.432181,-0.427346,-0.441046,-0.448783,-0.476507,-0.453780,-0.442497,-0.481020,-0.433148,-0.442497,-0.488918,-0.429763,-0.459905,-0.441369,-0.461678,-0.436050,-0.455714,-0.477635,-0.504069,-0.453780,-0.473283,-0.461033,-0.457003,-0.516964,-0.523572,-0.457326,-0.522605,-0.493592,-0.490691,-0.496332,-0.544687,-0.557260,-0.539691,-0.539691,-0.537273,-0.510678,-0.519543,-0.521155,-0.547750,-0.509710,-0.538079,-0.522283,-0.508743,-0.505036,-0.511322,-0.554197,-0.533727,-0.549684,-0.555164,-0.508905,-0.520187,-0.547911,-0.499556,-0.534855,-0.531631,-0.511806,-0.495688,-0.535500,-0.553069,-0.493914,-0.548072,-0.558388,-0.506487,-0.524056,-0.556937,-0.528247,-0.514546,-0.501974,-0.528891,-0.560483,-0.558066,-0.514062,-0.506648,-0.517286,-0.520187,-0.514546,-0.538240,-0.549362,-0.519381,-0.532437,-0.557743,-0.507454,-0.540174,-0.548556,-0.500201,-0.528891,-0.504714,-0.508099,-0.497622,-0.559355,-0.540174,-0.505842,-0.535500,-0.503102,-0.542753,-0.544204,-0.516964,-0.505520,-0.508582,-0.534049,-0.530987,-0.498266,-0.499234,-0.530020,-0.526312,-0.497944,-0.509872,-0.560967,-0.542592,-0.493109,-0.533888,-0.511967,-0.528730,-0.506164,-0.497622,-0.536306,-0.540819,-0.498105,-0.549684,-0.536467,-0.497299,-0.534694,-0.483760,-0.467319,-0.478924,-0.512773,-0.453457,-0.494559,-0.454102,-0.455714,-0.413162,-0.410905,-0.385438,-0.370287,-0.357553,-0.393175,-0.342886,-0.334182,-0.336277,-0.367708,-0.318708,-0.350784,-0.315807,-0.310004,-0.346109,-0.349333,-0.325639,-0.329346,-0.316129,-0.316613,-0.311294,-0.291146,-0.294208,-0.307748,-0.277606,-0.227156,-0.250689,-0.182508,-0.152367,-0.156396,-0.154784,-0.173804,-0.223126,-0.270353,-0.285021,-0.324349,-0.362389,-0.437500,-0.451523,-0.502457,-0.468125,-0.485049,-0.503102,-0.529214,-0.530503,-0.513579,-0.538885,-0.539046,-0.554036,-0.563546,-0.511483,-0.486339,-0.476507,-0.495688,-0.440240,-0.398494,-0.388339,-0.424283,-0.394787,-0.365129,-0.336761,-0.402685,-0.372543,-0.397043,-0.380602,-0.395109,-0.452168,-0.431859,-0.452168,-0.496332,-0.517931,-0.506164,-0.507615,-0.543075,-0.516158,-0.541786,-0.536950,-0.511967,-0.570315,-0.525506,-0.556131,-0.520349,-0.548395,-0.519543,-0.567898,-0.528730,-0.545493,-0.557421,-0.537918,-0.531148,-0.548717,-0.549523,-0.506003,-0.561128,-0.517608,-0.530987,-0.560000,-0.541786,-0.551457,-0.513095,-0.559516,-0.552908,-0.507776,-0.518414,-0.501651,-0.504553,-0.552263,-0.514224,-0.526796,-0.511161,-0.503585,-0.499878,-0.492303,-0.524862,-0.517447,-0.506648,-0.520187,-0.551941,-0.504391,-0.543881,-0.509227,-0.540497,-0.499072,-0.543881,-0.498750
 13:22:42.,-0.501490,-0.485694,-0.502457,-0.490852,-0.536950,-0.500362,-0.492625,-0.489885,-0.538240,-0.509549,-0.486984,-0.483276,-0.489401,-0.497622,-0.495526,-0.495043,-0.492947,-0.483760,-0.462161,-0.483115,-0.479569,-0.447494,-0.489401,-0.480859,-0.514707,-0.517125,-0.477796,-0.516803,-0.488112,-0.519865,-0.514707,-0.468770,-0.499878,-0.514546,-0.469092,-0.455069,-0.469092,-0.482793,-0.459582,-0.458615,-0.479892,-0.488434,-0.446204,-0.459744,-0.459905,-0.493592,-0.454747,-0.490207,-0.445076,-0.482309,-0.447494,-0.444431,-0.422833,-0.436856,-0.468770,-0.437823,-0.430892,-0.447010,-0.468447,-0.437017,-0.446527,-0.475378,-0.447494,-0.468931,-0.419770,-0.423638,-0.419770,-0.430247,-0.425573,-0.433632,-0.420737,-0.407359,-0.426379,-0.461839,-0.424767,-0.408810,-0.427829,-0.468770,-0.407520,-0.422188,-0.442175,-0.443303,-0.412033,-0.412839,-0.406069,-0.395593,-0.393658,-0.400750,-0.432181,-0.445398,-0.444592,-0.396398,-0.439273,-0.410905,-0.446527,-0.397043,-0.434760,-0.396398,-0.430086,-0.434921,-0.393820,-0.393497,-0.390596,-0.416385,-0.389468,-0.392369,-0.376089,-0.387533,-0.414129,-0.375445,-0.368353,-0.424283,-0.367547,-0.389145,-0.370770,-0.371576,-0.369803,-0.411872,-0.393820,-0.362228,-0.378507,-0.444270,-0.374316,-0.422349,-0.414129,-0.437661,-0.370287,-0.394303,-0.399622,-0.400589,-0.375122,-0.407037,-0.423316,-0.377540,-0.417030,-0.427185,-0.374478,-0.369642,-0.417675,-0.384632,-0.378185,-0.385116,-0.390596,-0.390273,-0.388823,-0.453941,-0.448783,-0.431859,-0.405586,-0.431214,-0.401073,-0.449267,-0.424606,-0.404135,-0.394303,-0.413806,-0.458293,-0.416708,-0.417191,-0.458132,-0.427346,-0.466997,-0.454908,-0.430731,-0.474089,-0.465707,-0.449428,-0.498105,-0.438951,-0.450395,-0.493914,-0.444754,-0.508421,-0.515191,-0.527602,-0.468931,-0.475217,-0.537112,-0.498750,-0.486016,-0.514868,-0.517931,-0.503424,-0.511161,-0.534855,-0.529214,-0.523572,-0.542592,-0.492303,-0.563868,-0.577408,-0.563546,-0.515835,-0.538724,-0.578052,-0.553230,-0.531793,-0.592720,-0.532437,-0.538562,-0.540980,-0.594009,-0.525023,-0.574506,-0.592236,-0.567414,-0.557098,-0.591914,-0.609322,-0.596105,-0.565480,-0.569993,-0.563062,-0.560644,-0.563546,-0.569026,-0.552424,-0.562256,-0.567253,-0.548556,-0.596750,-0.559516,-0.560967,-0.563546,-0.580792,-0.578052,-0.549845,-0.564352,-0.570477,-0.565964,-0.596427,-0.609644,-0.568542,-0.566286,-0.601585,-0.566125,-0.537434,-0.547589,-0.536950,-0.550490,-0.585628,-0.598523,-0.561934,-0.555487,-0.557260,-0.567737,-0.574023,-0.603842,-0.565319,-0.595621,-0.541786,-0.555164,-0.602713,-0.552424,-0.562579,-0.559839,-0.573056,-0.547427,-0.596750,-0.560000,-0.589335,-0.556776,-0.585628,-0.576924,-0.592075,-0.542914,-0.604486,-0.521477,-0.538885,-0.582082,-0.518414,-0.533082,-0.530826,-0.564191,-0.532437,-0.587401,-0.541947,-0.560161,-0.563546,-0.554197,-0.546460,-0.526796,-0.533082,-0.535661,-0.513257,-0.573378,-0.530987,-0.557421,-0.561773,-0.528569,-0.547589,-0.573217,-0.556293,-0.530020,-0.521316,-0.536467,-0.531470,-0.532760,-0.569026,-0.536467,-0.524378,-0.525506,-0.532760,-0.519543,-0.567414,-0.554358,-0.547427,-0.582243,-0.577246,-0.571444,-0.572089,-0.520671,-0.577085,-0.530503,-0.543720,-0.521799,-0.534049,-0.563546,-0.513257,-0.538885,-0.588690,-0.552424,-0.580792,-0.544043,-0.587079,-0.566125,-0.561289,-0.528247,-0.517931,-0.523089,-0.580148,-0.521155,-0.530020,-0.572411,-0.548878,-0.526474,-0.565802,-0.583210,-0.533243,-0.528730,-0.552746,-0.565641,-0.531631,-0.531954,-0.554036,-0.534855,-0.542753,-0.566125,-0.566931,-0.557421,-0.538401,-0.527924,-0.560644,-0.541625,-0.554358,-0.516641,-0.563385,-0.567092,-0.529052,-0.528085,-0.529697,-0.573217,-0.530826,-0.524056,-0.521316,-0.557582,-0.573217,-0.514062,-0.535339,-0.496655,-0.542108,-0.551135,-0.522283,-0.520510,-0.570154,-0.517286,-0.554197,-0.521638,-0.524539,-0.524539,-0.526635,-0.556615,-0.520349,-0.524056,-0.525023,-0.560644,-0.503102,-0.523733,-0.528730,-0.528891,-0.551618,-0.520187,-0.521316,-0.522283,-0.571283,-0.536628,-0.546783,-0.554520,-0.525990,-0.547105,-0.536628,-0.510839,-0.561289,-0.498428,-0.516803,-0.498266,-0.557260,-0.550006,-0.506809,-0.524378,-0.548072,-0.546138,-0.564996,-0.511161,-0.551779,-0.507132,-0.527924,-0.495526,-0.522766,-0.523572,-0.542914,-0.495526,-0.526474,-0.561773,-0.565802,-0.546460,-0.549684,-0.554358,-0.541625,-0.543075,-0.532437,-0.547266,-0.523733,-0.573700,-0.511483,-0.515030,-0.535983,-0.547427,-0.557743,-0.546783,-0.526957,-0.526474,-0.525345,-0.539207,-0.536789,-0.554036,-0.505681,-0.555970,-0.552102,-0.495204,-0.546299,-0.496655,-0.493753,-0.539529,-0.523089,-0.529375,-0.489401,-0.506809,-0.492625,-0.530826,-0.536306,-0.527924,-0.504714,-0.537918,-0.532921,-0.529858,-0.491980,-0.533727,-0.484888,-0.470221,-0.508099,-0.542753,-0.471832,-0.512289,-0.492303,-0.496493,-0.478441,-0.468447,-0.505197,-0.490207,-0.443303,-0.477151,-0.468447,-0.437984,-0.461033,-0.440885,-0.428796,-0.437017,-0.457165,-0.482148,-0.432181,-0.447010,-0.449589,-0.495849,-0.447977,-0.461678,-0.455230,-0.446204,-0.457809,-0.446849,-0.442013,-0.441046,-0.489401,-0.486339,-0.490368,-0.465385,-0.453941,-0.444270,-0.447655,-0.450073,-0.467642,-0.472477,-0.495365,-0.455875,-0.487145,-0.500523,-0.508905,-0.497783,-0.474250,-0.476829,-0.473767,-0.465063,-0.520349,-0.548072,-0.500362,-0.546622,-0.541464,-0.506648,-0.550490,-0.549684,-0.560644,-0.555003,-0.551941,-0.523733,-0.547105,-0.549200,-0.507132,-0.520026,-0.503263,-0.525023,-0.565964,-0.531309,-0.553552,-0.556776,-0.517608,-0.526151,-0.568542,-0.551457,-0.520832,-0.560000,-0.520993,-0.557421,-0.519704,-0.536467,-0.517931,-0.504714,-0.509549,-0.513418,-0.523733,-0.538562,-0.515513,-0.519220,-0.555003,-0.535500,-0.515835,-0.558388,-0.509710,-0.529214,-0.554197,-0.504714,-0.494076,-0.570477,-0.547750,-0.511806,-0.512451,-0.551941,-0.562901,-0.508582,-0.513740,-0.556776,-0.512934,-0.551296,-0.545171,-0.498428,-0.544204,-0.512612,-0.503424,-0.489079,-0.506326,-0.553875,-0.529375,-0.553230,-0.541625,-0.558549,-0.518092,-0.531309,-0.546622,-0.512934,-0.515997,-0.554681,-0.495849,-0.506164,-0.481020,-0.552585,-0.492786,-0.511322,-0.550812,-0.537112,-0.504230,-0.508905,-0.522766,-0.538885,-0.512128,-0.546783,-0.506970,-0.529536,-0.508743,-0.553552,-0.500523,-0.551457,-0.507776,-0.485694,-0.550812,-0.498750,-0.501490,-0.537112,-0.483276,-0.520832,-0.459421,-0.466674,-0.497622,-0.465063,-0.416224,-0.397366,-0.379313,-0.409293,-0.364484,-0.407842,-0.335149,-0.336922,-0.350945,-0.350784,-0.331442,-0.317902,-0.320965,-0.348043,-0.321287,-0.309037,-0.307748,-0.307586,-0.307909,-0.306458,-0.322415,-0.289050,-0.283086,-0.304363,-0.253268,-0.228284,-0.210070,-0.174932,-0.206202,-0.186376,-0.177672,-0.238922,-0.276800,-0.280830,-0.299366,-0.374639,-0.403974,-0.425250,-0.446849,-0.515674,-0.522444,-0.583210,-0.586273,-0.614319,-0.606743,-0.596588,-0.610450,-0.589335,-0.538724,-0.530826,-0.562740,-0.553552,-0.472155,-0.475540,-0.448944,-0.421543,-0.398816,-0.399783,-0.393014,-0.367869,-0.375283,-0.414290,-0.397688,-0.372221,-0.402523,-0.442175,-0.456520,-0.430247,-0.482793,-0.443948,-0.493270,-0.510033,-0.530987,-0.497622,-0.536628,-0.542592,-0.555970,-0.562095,-0.539207,-0.524217,-0.525184,-0.524056,-0.530826,-0.534533,-0.577408,-0.524701,-0.546783,-0.517931,-0.521477,-0.517608,-0.518576,-0.539207,-0.520993,-0.517608,-0.570315,-0.525506,-0.547266,-0.561612,-0.559194,-0.554842,-0.505520,-0.508260,-0.509710,-0.504875,-0.547105,-0.549039,-0.505842,-0.543720,-0.508743,-0.503585,-0.502296,-0.545493,-0.514224,-0.545010,-0.512612,-0.505036,-0.545010,-0.513579,-0.544365,-0.517286,-0.487145,-0.496816,-0.498750,-0.504069,-0.519059,-0.534855,-0.517447,-0.527441,-0.504230,-0.491174,-0.520187,-0.486661,-0.527279,-0.492625,-0.481826,-0.523733,-0.497461,-0.507615,-0.467642,-0.501007,-0.484566,-0.495849,-0.536467,-0.497944,-0.483599,-0.491658,-0.490530,-0.484243,-0.522283,-0.500362,-0.501974,-0.478602,-0.512612,-0.477635,-0.501651,-0.477957,-0.499234,-0.485694,-0.476990,-0.497138,-0.500684,-0.505197,-0.480536,-0.501812,-0.483115,-0.491013,-0.460711,-0.461194,-0.495365,-0.492625,-0.489724,-0.455714,-0.451040,-0.465063,-0.460066,-0.486984,-0.459260,-0.480053,-0.482470,-0.445882,-0.437500,-0.435244,-0.459421,-0.449267,-0.461194,-0.463934,-0.472316,-0.443625,-0.471671,-0.467480,-0.436533,-0.468286,-0.488918,-0.442497,-0.469415,-0.447010,-0.433148,-0.439596,-0.444270,-0.469737,-0.464257,-0.423800,-0.432987,-0.455069,-0.451523,-0.419931,-0.428313,-0.403652,-0.426056,-0.454586,-0.448783,-0.420254,-0.423800,-0.418964,-0.428152,-0.447655,-0.406875,-0.390918,-0.448461,-0.397527,-0.441207,-0.398010,-0.423316,-0.390918,-0.422994,-0.449589,-0.409454,-0.391402,-0.384310,-0.388500,-0.428313,-0.389629,-0.399139,-0.433148,-0.398171,-0.411066,-0.438467,-0.447171,-0.414451,-0.393981,-0.396398,-0.422510,-0.390918,-0.401073,-0.398333,-0.397043,-0.432665,-0.429602,-0.443948,-0.422994,-0.430892,-0.390596,-0.432826,-0.422671,-0.387050,-0.386083,-0.435566,-0.428958,-0.428313,-0.395109,-0.386405,-0.398816,-0.393820,-0.432504,-0.411550,-0.418803,-0.441207,-0.396237,-0.436372,-0.411389,-0.396882,-0.397849,-0.397849,-0.459421,-0.408165,-0.409777,-0.415096,-0.418481,-0.414129,-0.418319,-0.445559,-0.431536,-0.425089,-0.432181,-0.441530,-0.431698,-0.447494,-0.500845,-0.451684,-0.478441,-0.467158,-0.501812,-0.499234,-0.481826,-0.475862,-0.509872,-0.517608,-0.494398,-0.507293,-0.462967,-0.489724,-0.520993,-0.500845,-0.528730,-0.543237,-0.547427,-0.523572,-0.559194,-0.516158,-0.533727,-0.511322,-0.554520,-0.530826,-0.525990,-0.569993,-0.568059,-0.532599,-0.549845,-0.581598,-0.538079,-0.538724,-0.551457,-0.535983,-0.522928,-0.599490,-0.609805,-0.555487,-0.557098,-0.576763,-0.573539,-0.616575,-0.595138,-0.568704,-0.598684,-0.564674,-0.562417,-0.589013,-0.536306,-0.567092,-0.599973,-0.577569,-0.596266,-0.560483,-0.563062,-0.566769,-0.607549,-0.564674,-0.584177,-0.570477,-0.609644,-0.545493,-0.564513,-0.560161,-0.549039,-0.540819,-0.560483,-0.562579,-0.547427,-0.546783,-0.555648,-0.551296,-0.582243,-0.555487,-0.552746,-0.540819,-0.560000,-0.596105,-0.553069
 13:22:43.,-0.548878,-0.540819,-0.590786,-0.539046,-0.553391,-0.548556,-0.535177,-0.554842,-0.604648,-0.597233,-0.555003,-0.569832,-0.560644,-0.574990,-0.587401,-0.556937,-0.545654,-0.569832,-0.595299,-0.588046,-0.554842,-0.576440,-0.583533,-0.562256,-0.596266,-0.558871,-0.550006,-0.553875,-0.555648,-0.569187,-0.553714,-0.558066,-0.545171,-0.533082,-0.603842,-0.544365,-0.558066,-0.523895,-0.544687,-0.578697,-0.581760,-0.589496,-0.578052,-0.576924,-0.586111,-0.557904,-0.558066,-0.543075,-0.588046,-0.535822,-0.538079,-0.537756,-0.567575,-0.573378,-0.583855,-0.580309,-0.580792,-0.574023,-0.541947,-0.539529,-0.544687,-0.554036,-0.538724,-0.539207,-0.544204,-0.545171,-0.554197,-0.585950,-0.579019,-0.516480,-0.540658,-0.537434,-0.543398,-0.537434,-0.544848,-0.559516,-0.595460,-0.578536,-0.549039,-0.550168,-0.590947,-0.585628,-0.552424,-0.527924,-0.534210,-0.533566,-0.510678,-0.552746,-0.517125,-0.576924,-0.553230,-0.522444,-0.539852,-0.526312,-0.544204,-0.585306,-0.567575,-0.574506,-0.526957,-0.530503,-0.558388,-0.521155,-0.540174,-0.513740,-0.519381,-0.576763,-0.576602,-0.522122,-0.575635,-0.539368,-0.528569,-0.538079,-0.545332,-0.521316,-0.523572,-0.535177,-0.532921,-0.509872,-0.545010,-0.568865,-0.548233,-0.566286,-0.549200,-0.526151,-0.519543,-0.527763,-0.577730,-0.524056,-0.531631,-0.514546,-0.518253,-0.539046,-0.523411,-0.537434,-0.512934,-0.511806,-0.515513,-0.510355,-0.541141,-0.517125,-0.520349,-0.551941,-0.559516,-0.520349,-0.521638,-0.542592,-0.546783,-0.536145,-0.545816,-0.562256,-0.530342,-0.572733,-0.521155,-0.532599,-0.553875,-0.557098,-0.569832,-0.561773,-0.576118,-0.533404,-0.535661,-0.519704,-0.511483,-0.518092,-0.523250,-0.512289,-0.556937,-0.552424,-0.504553,-0.501974,-0.523250,-0.509066,-0.543559,-0.550006,-0.537273,-0.555487,-0.570638,-0.511322,-0.545010,-0.530664,-0.552585,-0.533082,-0.535822,-0.513095,-0.558871,-0.556615,-0.521960,-0.515513,-0.558549,-0.542108,-0.515352,-0.562256,-0.511000,-0.545332,-0.519059,-0.545171,-0.519220,-0.494237,-0.503263,-0.499234,-0.477957,-0.553714,-0.507454,-0.510355,-0.480375,-0.543559,-0.545493,-0.508582,-0.548717,-0.550812,-0.535983,-0.520671,-0.552908,-0.546460,-0.521155,-0.537273,-0.541464,-0.510194,-0.479247,-0.481665,-0.493431,-0.459099,-0.471188,-0.463773,-0.459421,-0.512612,-0.471510,-0.464096,-0.444270,-0.476345,-0.505842,-0.451846,-0.495526,-0.458776,-0.454586,-0.508260,-0.505359,-0.490368,-0.447494,-0.492141,-0.511161,-0.504714,-0.498105,-0.466030,-0.480053,-0.482632,-0.495526,-0.466513,-0.498428,-0.469737,-0.514868,-0.506648,-0.458776,-0.478118,-0.486661,-0.455230,-0.510678,-0.515352,-0.500845,-0.486984,-0.475378,-0.462967,-0.471349,-0.483760,-0.472961,-0.514546,-0.519059,-0.525990,-0.494720,-0.488112,-0.498750,-0.514868,-0.533243,-0.512451,-0.526635,-0.553875,-0.562740,-0.529214,-0.575957,-0.507132,-0.568059,-0.539046,-0.516158,-0.512612,-0.564996,-0.521638,-0.544526,-0.531148,-0.533404,-0.538724,-0.526796,-0.531309,-0.511483,-0.549845,-0.552746,-0.558871,-0.523250,-0.546944,-0.518414,-0.518576,-0.516480,-0.545493,-0.518092,-0.509066,-0.570477,-0.576279,-0.514062,-0.531148,-0.534210,-0.550490,-0.570477,-0.558710,-0.523411,-0.536950,-0.524539,-0.557260,-0.571283,-0.572089,-0.560483,-0.519704,-0.506164,-0.521799,-0.572411,-0.562901,-0.526474,-0.520993,-0.568704,-0.533243,-0.557098,-0.533566,-0.531631,-0.566769,-0.559194,-0.537273,-0.509872,-0.506003,-0.535661,-0.550490,-0.544043,-0.554358,-0.531148,-0.518898,-0.563707,-0.572411,-0.556131,-0.548233,-0.572250,-0.537595,-0.514868,-0.534694,-0.531631,-0.541625,-0.533888,-0.558710,-0.535177,-0.536789,-0.519220,-0.496171,-0.523089,-0.506487,-0.562579,-0.550006,-0.540819,-0.499234,-0.542431,-0.531793,-0.484727,-0.542592,-0.522283,-0.463934,-0.470865,-0.455553,-0.455875,-0.491658,-0.446204,-0.432987,-0.411389,-0.442819,-0.417997,-0.417030,-0.370931,-0.401073,-0.350461,-0.391241,-0.346915,-0.331119,-0.317580,-0.343208,-0.318708,-0.311132,-0.323705,-0.366580,-0.316290,-0.303073,-0.318224,-0.311132,-0.297754,-0.299044,-0.275994,-0.270837,-0.273899,-0.228768,-0.181863,-0.189761,-0.159459,-0.195403,-0.160587,-0.223610,-0.224577,-0.250689,-0.290501,-0.315968,-0.353846,-0.406875,-0.428958,-0.448944,-0.470704,-0.488112,-0.543881,-0.522605,-0.522283,-0.542592,-0.568704,-0.521316,-0.543237,-0.505681,-0.515513,-0.490046,-0.450395,-0.468931,-0.433793,-0.402685,-0.419770,-0.409293,-0.373510,-0.361260,-0.356264,-0.405908,-0.374961,-0.381247,-0.419770,-0.481987,-0.447332,-0.496977,-0.471832,-0.544365,-0.492303,-0.542592,-0.548233,-0.518737,-0.528891,-0.578858,-0.535661,-0.548072,-0.570638,-0.579987,-0.566608,-0.579342,-0.587079,-0.580954,-0.538079,-0.567092,-0.567414,-0.528891,-0.535339,-0.581921,-0.558388,-0.520349,-0.561128,-0.570315,-0.532760,-0.519220,-0.535339,-0.526796,-0.577730,-0.532276,-0.562740,-0.567898,-0.527118,-0.539368,-0.526474,-0.569993,-0.542592,-0.567898,-0.529858,-0.547750,-0.539368,-0.498589,-0.498428,-0.536628,-0.526151,-0.515030,-0.524217,-0.525829,-0.511322,-0.526957,-0.572250,-0.556776,-0.532115,-0.512773,-0.508260,-0.500362,-0.495849,-0.546622,-0.508099,-0.508421,-0.537434,-0.503585,-0.512934,-0.497622,-0.548556,-0.498589,-0.511645,-0.488595,-0.491336,-0.500523,-0.484566,-0.495204,-0.484888,-0.475701,-0.538885,-0.522122,-0.498428,-0.487306,-0.491819,-0.530664,-0.532437,-0.518898,-0.482954,-0.472155,-0.538079,-0.517286,-0.512934,-0.483276,-0.471349,-0.476990,-0.473444,-0.471510,-0.506164,-0.470704,-0.467480,-0.494237,-0.473928,-0.504553,-0.487951,-0.471832,-0.485049,-0.489401,-0.503908,-0.476345,-0.464257,-0.520832,-0.499072,-0.453135,-0.508582,-0.493431,-0.499556,-0.491819,-0.501329,-0.451201,-0.487951,-0.454102,-0.445721,-0.468609,-0.455875,-0.459905,-0.429119,-0.468286,-0.429602,-0.440885,-0.442336,-0.463612,-0.427668,-0.433471,-0.479086,-0.441691,-0.460227,-0.416063,-0.472638,-0.427668,-0.461839,-0.463128,-0.451362,-0.460227,-0.407520,-0.402523,-0.396237,-0.406553,-0.456036,-0.404135,-0.398171,-0.444915,-0.430408,-0.413162,-0.402523,-0.429925,-0.417836,-0.415096,-0.447332,-0.438467,-0.413806,-0.432826,-0.431214,-0.396076,-0.424444,-0.428474,-0.435888,-0.379313,-0.433793,-0.403652,-0.439273,-0.396398,-0.402040,-0.395431,-0.423316,-0.439112,-0.382375,-0.397849,-0.371737,-0.440240,-0.415740,-0.395593,-0.416063,-0.397366,-0.382859,-0.423155,-0.426379,-0.386727,-0.390918,-0.440563,-0.388178,-0.375122,-0.387372,-0.381247,-0.391885,-0.399139,-0.384793,-0.386244,-0.387533,-0.390112,-0.381570,-0.393658,-0.397366,-0.400428,-0.401234,-0.390435,-0.421060,-0.407198,-0.444915,-0.414290,-0.404941,-0.469415,-0.401395,-0.458132,-0.441369,-0.420898,-0.425250,-0.437823,-0.436533,-0.435566,-0.449750,-0.458293,-0.475701,-0.487790,-0.455714,-0.452168,-0.450395,-0.452168,-0.469415,-0.448783,-0.481665,-0.471349,-0.513740,-0.483599,-0.480536,-0.533727,-0.518898,-0.506648,-0.500039,-0.508582,-0.503585,-0.507776,-0.554681,-0.511645,-0.555003,-0.515352,-0.491174,-0.530181,-0.567898,-0.513901,-0.553230,-0.525023,-0.520026,-0.523250,-0.570477,-0.517608,-0.527763,-0.582243,-0.536789,-0.558388,-0.538562,-0.594332,-0.602875,-0.525990,-0.545493,-0.553391,-0.558388,-0.586273,-0.551779,-0.598361,-0.552263,-0.609644,-0.566447,-0.578213,-0.553552,-0.598845,-0.557260,-0.589174,-0.583855,-0.557904,-0.589496,-0.593365,-0.593848,-0.556131,-0.547266,-0.597717,-0.609000,-0.600779,-0.562740,-0.600779,-0.550006,-0.596588,-0.545816,-0.565964,-0.554681,-0.607388,-0.608677,-0.552908,-0.606421,-0.556131,-0.581437,-0.593687,-0.555487,-0.614157,-0.596911,-0.595782,-0.558549,-0.547266,-0.562740,-0.593204,-0.537595,-0.542270,-0.560967,-0.550329,-0.534694,-0.552746,-0.584822,-0.560483,-0.571121,-0.590947,-0.562579,-0.544687,-0.555648,-0.610773,-0.560322,-0.579664,-0.519059,-0.600134,-0.552908,-0.579019,-0.586273,-0.537112,-0.572894,-0.537112,-0.549845,-0.558549,-0.551779,-0.556131,-0.547427,-0.592720,-0.577408,-0.567253,-0.535339,-0.563223,-0.527602,-0.530181,-0.569187,-0.556937,-0.529697,-0.546299,-0.569510,-0.545493,-0.589980,-0.585789,-0.538079,-0.582243,-0.557098,-0.565158,-0.541141,-0.533727,-0.544204,-0.558871,-0.578213,-0.566931,-0.527118,-0.528730,-0.553391,-0.514868,-0.540174,-0.572572,-0.525184,-0.547427,-0.524378,-0.575796,-0.550329,-0.568865,-0.538240,-0.518737,-0.578858,-0.528569,-0.547750,-0.540335,-0.523895,-0.523733,-0.559839,-0.534372,-0.563868,-0.550651,-0.535177,-0.533566,-0.530664,-0.543398,-0.582243,-0.563868,-0.532276,-0.535339,-0.559677,-0.516964,-0.578697,-0.524862,-0.571444,-0.576118,-0.538401,-0.577891,-0.554520,-0.562579,-0.538079,-0.560322,-0.538724,-0.508099,-0.517286,-0.515352,-0.531793,-0.546783,-0.550168,-0.523572,-0.552424,-0.517770,-0.561773,-0.520026,-0.524701,-0.533888,-0.532760,-0.497944,-0.563223,-0.543075,-0.560644,-0.519543,-0.561128,-0.509549,-0.550329,-0.513740,-0.565158,-0.527118,-0.564352,-0.580309,-0.564029,-0.555809,-0.572733,-0.557582,-0.573378,-0.555487,-0.517447,-0.511000,-0.511967,-0.568059,-0.524217,-0.527441,-0.563546,-0.556131,-0.563546,-0.529052,-0.519865,-0.566447,-0.529697,-0.521638,-0.517931,-0.519865,-0.579987,-0.547427,-0.523895,-0.520510,-0.499234,-0.514868,-0.547589,-0.505842,-0.513579,-0.504553,-0.517931,-0.541625,-0.549523,-0.551457,-0.539852,-0.508582,-0.546622,-0.502457,-0.526796,-0.505681,-0.513418,-0.539852,-0.505036,-0.513257,-0.552746,-0.501329,-0.530664,-0.561773,-0.507293,-0.508582,-0.552102,-0.504069,-0.515030,-0.551618,-0.507776,-0.509227,-0.552424,-0.490691,-0.534210,-0.506487,-0.513740,-0.511806,-0.488273,-0.544043,-0.482632,-0.541464,-0.537273,-0.492141,-0.466513,-0.533082,-0.540013,-0.484727,-0.480536,-0.529858,-0.486984,-0.525345,-0.473122,-0.491497,-0.525345,-0.479892,-0.522928,-0.472316,-0.531470,-0.493592,-0.483438,-0.491013,-0.518092,-0.513095,-0.490530,-0.505359,-0.476184,-0.462000,-0.477957,-0.453619,-0.442013,-0.454586,-0.462484,-0.457971,-0.453457,-0.457487,-0.454586,-0.494882,-0.452490,-0.492786,-0.432665,-0.434921,-0.433632,-0.475378,-0.441046,-0.430247,-0.444270,-0.490691,-0.459744,-0.445559,-0.492947,-0.486500,-0.463934,-0.464579,-0.482309,-0.487628,-0.472799,-0.472638
 13:22:44.,-0.441691,-0.481987,-0.432342,-0.454908,-0.423155,-0.501651,-0.436533,-0.465063,-0.475540,-0.462323,-0.494398,-0.479569,-0.477313,-0.497461,-0.519381,-0.502457,-0.521477,-0.533082,-0.461839,-0.499556,-0.550490,-0.557421,-0.533727,-0.537756,-0.531309,-0.511806,-0.553875,-0.565802,-0.499556,-0.553552,-0.556454,-0.519704,-0.520026,-0.555648,-0.553714,-0.541302,-0.495365,-0.519059,-0.549362,-0.505681,-0.510516,-0.516319,-0.546299,-0.516158,-0.534049,-0.550651,-0.545977,-0.506003,-0.558388,-0.533566,-0.503424,-0.505197,-0.533243,-0.491658,-0.500362,-0.542431,-0.543881,-0.526635,-0.557582,-0.542431,-0.532276,-0.527118,-0.516319,-0.522766,-0.521799,-0.524378,-0.509388,-0.544687,-0.505842,-0.492303,-0.562256,-0.523733,-0.516803,-0.540174,-0.502296,-0.503585,-0.493109,-0.554358,-0.526474,-0.493753,-0.506648,-0.494076,-0.490368,-0.491658,-0.546299,-0.545977,-0.511483,-0.528408,-0.526312,-0.531309,-0.510194,-0.549362,-0.510516,-0.506648,-0.509388,-0.514062,-0.519381,-0.552908,-0.560483,-0.547911,-0.551779,-0.493753,-0.500684,-0.552102,-0.555809,-0.525829,-0.519059,-0.559194,-0.506164,-0.502941,-0.548072,-0.549200,-0.544848,-0.497461,-0.517125,-0.529375,-0.496655,-0.499234,-0.480053,-0.488757,-0.473928,-0.487467,-0.480697,-0.475056,-0.499556,-0.461194,-0.476990,-0.488757,-0.471994,-0.428796,-0.453941,-0.398655,-0.378829,-0.394625,-0.373349,-0.381570,-0.377218,-0.329507,-0.360616,-0.323866,-0.308231,-0.314356,-0.309843,-0.343208,-0.294692,-0.357714,-0.283892,-0.293725,-0.299366,-0.319997,-0.287761,-0.297754,-0.245531,-0.287761,-0.236021,-0.207975,-0.189761,-0.148821,-0.168807,-0.173965,-0.140117,-0.182347,-0.190567,-0.272932,-0.268258,-0.337244,-0.375122,-0.383665,-0.454263,-0.435566,-0.471994,-0.524378,-0.540497,-0.524378,-0.565802,-0.574829,-0.538079,-0.546460,-0.536628,-0.547427,-0.491013,-0.474250,-0.469898,-0.432826,-0.418158,-0.417675,-0.419609,-0.417352,-0.350461,-0.356425,-0.379958,-0.363678,-0.418642,-0.403491,-0.409777,-0.460872,-0.440079,-0.495526,-0.475378,-0.479247,-0.540335,-0.498750,-0.547427,-0.553714,-0.543881,-0.498105,-0.567092,-0.516158,-0.523089,-0.527118,-0.531631,-0.571283,-0.532115,-0.523733,-0.546783,-0.556937,-0.522444,-0.512289,-0.521638,-0.553552,-0.535177,-0.515835,-0.532760,-0.533404,-0.517608,-0.533082,-0.516641,-0.514707,-0.559677,-0.518576,-0.559194,-0.506326,-0.548717,-0.562740,-0.495849,-0.542592,-0.502296,-0.502618,-0.500684,-0.516803,-0.526635,-0.541302,-0.509227,-0.533082,-0.542431,-0.511161,-0.502780,-0.515352,-0.500362,-0.500039,-0.521638,-0.484082,-0.494882,-0.496977,-0.491013,-0.494398,-0.546138,-0.506003,-0.498911,-0.507937,-0.544526,-0.507132,-0.500039,-0.520993,-0.501168,-0.539691,-0.485533,-0.474250,-0.460066,-0.499072,-0.464096,-0.494398,-0.473928,-0.478763,-0.476023,-0.477957,-0.480859,-0.486178,-0.502941,-0.501168,-0.481826,-0.487306,-0.476345,-0.472316,-0.489885,-0.464418,-0.469898,-0.498105,-0.474734,-0.481826,-0.484405,-0.475862,-0.518414,-0.471188,-0.480214,-0.513095,-0.456842,-0.504230,-0.464096,-0.458615,-0.456036,-0.443142,-0.503747,-0.508260,-0.472477,-0.452652,-0.447332,-0.480214,-0.454102,-0.439434,-0.445076,-0.449105,-0.438629,-0.434599,-0.422833,-0.473444,-0.445398,-0.428313,-0.424283,-0.461839,-0.431053,-0.423800,-0.462967,-0.475701,-0.417352,-0.419931,-0.466997,-0.466836,-0.454586,-0.404135,-0.451362,-0.403007,-0.421221,-0.405102,-0.408004,-0.407359,-0.442336,-0.385922,-0.428958,-0.400267,-0.391402,-0.404941,-0.442658,-0.389951,-0.397527,-0.387695,-0.422188,-0.387856,-0.384954,-0.434760,-0.367063,-0.413967,-0.388500,-0.418964,-0.379152,-0.376734,-0.415579,-0.371576,-0.427185,-0.400428,-0.417191,-0.372382,-0.377862,-0.410744,-0.404135,-0.396882,-0.391241,-0.361422,-0.388984,-0.358359,-0.347076,-0.362389,-0.358682,-0.413967,-0.366418,-0.415902,-0.357714,-0.409777,-0.362711,-0.392369,-0.370609,-0.388339,-0.369481,-0.395109,-0.373188,-0.417352,-0.372704,-0.369803,-0.386889,-0.371254,-0.378668,-0.421704,-0.371576,-0.411872,-0.422671,-0.380925,-0.382698,-0.385599,-0.422510,-0.393820,-0.391079,-0.376251,-0.400267,-0.411872,-0.465707,-0.421221,-0.388662,-0.413645,-0.462645,-0.417352,-0.450878,-0.433148,-0.425573,-0.422994,-0.479408,-0.428474,-0.420092,-0.438951,-0.468125,-0.428474,-0.451684,-0.472316,-0.497944,-0.508260,-0.504230,-0.464901,-0.476023,-0.503263,-0.477474,-0.517770,-0.520993,-0.518737,-0.506809,-0.494076,-0.507454,-0.520993,-0.509710,-0.499072,-0.498428,-0.509227,-0.573862,-0.569993,-0.563062,-0.533404,-0.545977,-0.565641,-0.532599,-0.569671,-0.538562,-0.579503,-0.580631,-0.530342,-0.563707,-0.532437,-0.526312,-0.548878,-0.545332,-0.542914,-0.550490,-0.575635,-0.588690,-0.584822,-0.603680,-0.563707,-0.597556,-0.561450,-0.608355,-0.577891,-0.595138,-0.548072,-0.555970,-0.557743,-0.619960,-0.609322,-0.575957,-0.570799,-0.571927,-0.567092,-0.576279,-0.573539,-0.570799,-0.560322,-0.589335,-0.558710,-0.560322,-0.611256,-0.534372,-0.553552,-0.557260,-0.606582,-0.566769,-0.598039,-0.563707,-0.602552,-0.611417,-0.566931,-0.562256,-0.567414,-0.557260,-0.560967,-0.541302,-0.554681,-0.582727,-0.534533,-0.596427,-0.594009,-0.590463,-0.579987,-0.571283,-0.595621,-0.575312,-0.559677,-0.591592,-0.548233,-0.597072,-0.557743,-0.595782,-0.551135,-0.565641,-0.526474,-0.582565,-0.564513,-0.535339,-0.548878,-0.564835,-0.591108,-0.581276,-0.583210,-0.594171,-0.575151,-0.553875,-0.548233,-0.578536,-0.583855,-0.533727,-0.535177,-0.582727,-0.535177,-0.575473,-0.575957,-0.560806,-0.564835,-0.504714,-0.556937,-0.534049,-0.538079,-0.582243,-0.586434,-0.546299,-0.574829,-0.568381,-0.526474,-0.569026,-0.567898,-0.578052,-0.555003,-0.543237,-0.535500,-0.527602,-0.534049,-0.541302,-0.547750,-0.574345,-0.580954,-0.538079,-0.532599,-0.537273,-0.537595,-0.514385,-0.570154,-0.524378,-0.514546,-0.529375,-0.571121,-0.576279,-0.533727,-0.536306,-0.532115,-0.527602,-0.535500,-0.563223,-0.533243,-0.579181,-0.533404,-0.522444,-0.511000,-0.538079,-0.539207,-0.514224,-0.522766,-0.515674,-0.521960,-0.560483,-0.533888,-0.523733,-0.537434,-0.572572,-0.521316,-0.567253,-0.568059,-0.523733,-0.568381,-0.559355,-0.541786,-0.503908,-0.555003,-0.533082,-0.522283,-0.537756,-0.546783,-0.574184,-0.533243,-0.600618,-0.528891,-0.526312,-0.562579,-0.520510,-0.522444,-0.529858,-0.573378,-0.534049,-0.518898,-0.552746,-0.554842,-0.531954,-0.554520,-0.518414,-0.527924,-0.556776,-0.562901,-0.568220,-0.532115,-0.577730,-0.511967,-0.523733,-0.565641,-0.491174,-0.514546,-0.534210,-0.520187,-0.559516,-0.580148,-0.535016,-0.543237,-0.586273,-0.582888,-0.523572,-0.523411,-0.532437,-0.522122,-0.521477,-0.525506,-0.537756,-0.511000,-0.512773,-0.503263,-0.515674,-0.531470,-0.519381,-0.521477,-0.563707,-0.565480,-0.499878,-0.526635,-0.574667,-0.514224,-0.558066,-0.511645,-0.502457,-0.543398,-0.512773,-0.508260,-0.493431,-0.517286,-0.508905,-0.507132,-0.496655,-0.508421,-0.506003,-0.516480,-0.552746,-0.517447,-0.496816,-0.498428,-0.485694,-0.516641,-0.490852,-0.488112,-0.500362,-0.503102,-0.543881,-0.501490,-0.550006,-0.510194,-0.549845,-0.538079,-0.536950,-0.548072,-0.489401,-0.515030,-0.550006,-0.496171,-0.526796,-0.493270,-0.514546,-0.510678,-0.532276,-0.509388,-0.527118,-0.506003,-0.513901,-0.503585,-0.506487,-0.495365,-0.491497,-0.491336,-0.547750,-0.527279,-0.521477,-0.540658,-0.471994,-0.525668,-0.487628,-0.525829,-0.517608,-0.478118,-0.545816,-0.496816,-0.522444,-0.523733,-0.490046,-0.492625,-0.518414,-0.470704,-0.449105,-0.496977,-0.473928,-0.467158,-0.447655,-0.451846,-0.488757,-0.507937,-0.499234,-0.464740,-0.493592,-0.472155,-0.468931,-0.465224,-0.453780,-0.476990,-0.466836,-0.454102,-0.466352,-0.448138,-0.497299,-0.454908,-0.491013,-0.472155,-0.467480,-0.446043,-0.461033,-0.491819,-0.491980,-0.444270,-0.484405,-0.492947,-0.442336,-0.468447,-0.482632,-0.491819,-0.476990,-0.429925,-0.453941,-0.477957,-0.502618,-0.485049,-0.468447,-0.478441,-0.469576,-0.495526,-0.518414,-0.521799,-0.532115,-0.491980,-0.485049,-0.487628,-0.502296,-0.548395,-0.534533,-0.515513,-0.521316,-0.558066,-0.511483,-0.513095,-0.557904,-0.555003,-0.542592,-0.518092,-0.558710,-0.510194,-0.497138,-0.516803,-0.543075,-0.493270,-0.482470,-0.550651,-0.509549,-0.499072,-0.525506,-0.520187,-0.503747,-0.513418,-0.527441,-0.545171,-0.508905,-0.515030,-0.563223,-0.537756,-0.512289,-0.509227,-0.555970,-0.551135,-0.520187,-0.560644,-0.510194,-0.514224,-0.520993,-0.556937,-0.550651,-0.530342,-0.518898,-0.503908,-0.517286,-0.506326,-0.533243,-0.511161,-0.501329,-0.539368,-0.508421,-0.546944,-0.514224,-0.519704,-0.517447,-0.553069,-0.555003,-0.539529,-0.507937,-0.510516,-0.510839,-0.514546,-0.543559,-0.523089,-0.505359,-0.534855,-0.494076,-0.534533,-0.545010,-0.505359,-0.516158,-0.515674,-0.504230,-0.508099,-0.525829,-0.548072,-0.559033,-0.520349,-0.494076,-0.486661,-0.521155,-0.491658,-0.525023,-0.555003,-0.533727,-0.492464,-0.550329,-0.513579,-0.491174,-0.515997,-0.495526,-0.499717,-0.501651,-0.495526,-0.496171,-0.512934,-0.535500,-0.498266,-0.514062,-0.477796,-0.539691,-0.489885,-0.506970,-0.470543,-0.517286,-0.463451,-0.479408,-0.477957,-0.463451,-0.454747,-0.402040,-0.410260,-0.407037,-0.362711,-0.382698,-0.371899,-0.373188,-0.326445,-0.319030,-0.365290,-0.312905,-0.331925,-0.284054,-0.309521,-0.323705,-0.333537,-0.275027,-0.283570,-0.278896,-0.297754,-0.265195,-0.241985,-0.238922,-0.237472,-0.232797,-0.150271,-0.126900,-0.121742,-0.158008,-0.174771,-0.186860,-0.181863,-0.239889,-0.272771,-0.321771,-0.302912,-0.392208,-0.380764,-0.401718,-0.449589,-0.464418,-0.485533,-0.508743,-0.558549,-0.529536,-0.562256,-0.522605,-0.512128,-0.546622,-0.494559,-0.492786,-0.491980,-0.435566,-0.441691,-0.415418,-0.374155,-0.365129,-0.341596,-0.376412,-0.344981,-0.386566,-0.396076,-0.398816,-0.427668,-0.400106,-0.471671,-0.440402,-0.473122,-0.498105,-0.517608,-0.528730,-0.503102,-0.534533,-0.551941,-0.503102,-0.559355,-0.554520,-0.550329,-0.510194,-0.548233,-0.509066,-0.564352,-0.530503,-0.511000,-0.550651,-0.521155,-0.547427,-0.508743,-0.528408,-0.506003,-0.504875,-0.550329,-0.516803,-0.550812,-0.505842,-0.517931,-0.553552,-0.513095,-0.508099,-0.557904,-0.515513,-0.527441
 13:22:45.,-0.496171,-0.495204,-0.517125,-0.516319,-0.496010,-0.551618,-0.516641,-0.511161,-0.518898,-0.558710,-0.546460,-0.505681,-0.550812,-0.517125,-0.514546,-0.560644,-0.506326,-0.516641,-0.554197,-0.531954,-0.497138,-0.497783,-0.496493,-0.493431,-0.514707,-0.505036,-0.509227,-0.530020,-0.487145,-0.508905,-0.520187,-0.503908,-0.493914,-0.472638,-0.529375,-0.481342,-0.517770,-0.511967,-0.531309,-0.530342,-0.521316,-0.486661,-0.531793,-0.521477,-0.494882,-0.481665,-0.515191,-0.473767,-0.476829,-0.473122,-0.514707,-0.474250,-0.502135,-0.499878,-0.511161,-0.469898,-0.455714,-0.475862,-0.511645,-0.447816,-0.450556,-0.499556,-0.499556,-0.497299,-0.475540,-0.509066,-0.487951,-0.496493,-0.500362,-0.468770,-0.460711,-0.473122,-0.452974,-0.448622,-0.498428,-0.459099,-0.446365,-0.461678,-0.448300,-0.457971,-0.444431,-0.469737,-0.490368,-0.429925,-0.473122,-0.488918,-0.437339,-0.442819,-0.441369,-0.475217,-0.454747,-0.476668,-0.455875,-0.454908,-0.464418,-0.404941,-0.438145,-0.435566,-0.447171,-0.450073,-0.435888,-0.406069,-0.403974,-0.380764,-0.395754,-0.447010,-0.399139,-0.398977,-0.424928,-0.449589,-0.395109,-0.404780,-0.444431,-0.429280,-0.391563,-0.395270,-0.429925,-0.416708,-0.430569,-0.394464,-0.403491,-0.384632,-0.397849,-0.407198,-0.427185,-0.422027,-0.393820,-0.416869,-0.387211,-0.413323,-0.427185,-0.384632,-0.380280,-0.376251,-0.394787,-0.377540,-0.377218,-0.383987,-0.374800,-0.371576,-0.424606,-0.379474,-0.385438,-0.381086,-0.372704,-0.415096,-0.416546,-0.408810,-0.374800,-0.401073,-0.374155,-0.369803,-0.373672,-0.389306,-0.390918,-0.421382,-0.370448,-0.433148,-0.380119,-0.430569,-0.388500,-0.431053,-0.385116,-0.393981,-0.428796,-0.378024,-0.375445,-0.402523,-0.423155,-0.419448,-0.426379,-0.454263,-0.415096,-0.443464,-0.443303,-0.457165,-0.429119,-0.444109,-0.466191,-0.461033,-0.463934,-0.480697,-0.429119,-0.454102,-0.475701,-0.476023,-0.438467,-0.461033,-0.459260,-0.456198,-0.484082,-0.506648,-0.495688,-0.463773,-0.517770,-0.486178,-0.477313,-0.504391,-0.497299,-0.519704,-0.485211,-0.481826,-0.515352,-0.518576,-0.543720,-0.538401,-0.525023,-0.535177,-0.527763,-0.512451,-0.547427,-0.564996,-0.514546,-0.534694,-0.533888,-0.528891,-0.542108,-0.559839,-0.542270,-0.566769,-0.554358,-0.563223,-0.559194,-0.558710,-0.563546,-0.604164,-0.607065,-0.561773,-0.621250,-0.561128,-0.565319,-0.607710,-0.600457,-0.597717,-0.569026,-0.600134,-0.571605,-0.582082,-0.599973,-0.569510,-0.595138,-0.574829,-0.585789,-0.590947,-0.584016,-0.603519,-0.612384,-0.570154,-0.552746,-0.568542,-0.565964,-0.592236,-0.590302,-0.598684,-0.616575,-0.555325,-0.578375,-0.612384,-0.572089,-0.605131,-0.622861,-0.626246,-0.579503,-0.572089,-0.587885,-0.572894,-0.564996,-0.563385,-0.552585,-0.550168,-0.551135,-0.572894,-0.544365,-0.562417,-0.565641,-0.584016,-0.565480,-0.590947,-0.561128,-0.608516,-0.604003,-0.604809,-0.560161,-0.560967,-0.546622,-0.589335,-0.612062,-0.601102,-0.576279,-0.562901,-0.567575,-0.595138,-0.566931,-0.609000,-0.555487,-0.550651,-0.600457,-0.591914,-0.506487,-0.570960,-0.571444,-0.532276,-0.580631,-0.545654,-0.536467,-0.575473,-0.555970,-0.573056,-0.543398,-0.597556,-0.598039,-0.551779,-0.565480,-0.554358,-0.554520,-0.543720,-0.543237,-0.563062,-0.544687,-0.584661,-0.579503,-0.553069,-0.577246,-0.533243,-0.531631,-0.534372,-0.534694,-0.533727,-0.564029,-0.559839,-0.532276,-0.526796,-0.571121,-0.539529,-0.530342,-0.563062,-0.577569,-0.571605,-0.561128,-0.544365,-0.564029,-0.568542,-0.582243,-0.563707,-0.533243,-0.522605,-0.529858,-0.561773,-0.529697,-0.530181,-0.551618,-0.526312,-0.563223,-0.512934,-0.533243,-0.524539,-0.557904,-0.552102,-0.535822,-0.535177,-0.550812,-0.545332,-0.576440,-0.529375,-0.552585,-0.529052,-0.564352,-0.547589,-0.536467,-0.535177,-0.534372,-0.531309,-0.536145,-0.535339,-0.524539,-0.534533,-0.536145,-0.534855,-0.537273,-0.559033,-0.566931,-0.557582,-0.525668,-0.534372,-0.508743,-0.539046,-0.507776,-0.519059,-0.528408,-0.558549,-0.533243,-0.539207,-0.528891,-0.535016,-0.531954,-0.579342,-0.528247,-0.561450,-0.544848,-0.516803,-0.518414,-0.568542,-0.572733,-0.511806,-0.528569,-0.564674,-0.519059,-0.563546,-0.535177,-0.527279,-0.573217,-0.571283,-0.567898,-0.564513,-0.533082,-0.543398,-0.571766,-0.540335,-0.522605,-0.527118,-0.522766,-0.530987,-0.524378,-0.565641,-0.528247,-0.524701,-0.524701,-0.527441,-0.532599,-0.525990,-0.562417,-0.530342,-0.551779,-0.517608,-0.526151,-0.509872,-0.516803,-0.514546,-0.568542,-0.561128,-0.530826,-0.553069,-0.566931,-0.573056,-0.536789,-0.521638,-0.529052,-0.527118,-0.566769,-0.515997,-0.576440,-0.518092,-0.515513,-0.538562,-0.551779,-0.516158,-0.550006,-0.527118,-0.542270,-0.537112,-0.556615,-0.545332,-0.530826,-0.517770,-0.542914,-0.520187,-0.506326,-0.511645,-0.538724,-0.495043,-0.503908,-0.484888,-0.549684,-0.504875,-0.497944,-0.557421,-0.533566,-0.497944,-0.513579,-0.510516,-0.532276,-0.482793,-0.525023,-0.465224,-0.475862,-0.506487,-0.494237,-0.500684,-0.493270,-0.467158,-0.483276,-0.497622,-0.500845,-0.472477,-0.454263,-0.469898,-0.467158,-0.474250,-0.496816,-0.493592,-0.445398,-0.460549,-0.462161,-0.477796,-0.452652,-0.462323,-0.471188,-0.451523,-0.469576,-0.464901,-0.484888,-0.520510,-0.511645,-0.467158,-0.469576,-0.484727,-0.452652,-0.458454,-0.516803,-0.456198,-0.504069,-0.462484,-0.494882,-0.472316,-0.475540,-0.522605,-0.530342,-0.530020,-0.539691,-0.495043,-0.512934,-0.506164,-0.538079,-0.557421,-0.554842,-0.509227,-0.548717,-0.538885,-0.517286,-0.572250,-0.541141,-0.563223,-0.526312,-0.538079,-0.539691,-0.518576,-0.534049,-0.540819,-0.529375,-0.537756,-0.531793,-0.514062,-0.541947,-0.551941,-0.519865,-0.527441,-0.556293,-0.527924,-0.523895,-0.527924,-0.521316,-0.578536,-0.582727,-0.515191,-0.553230,-0.560644,-0.563062,-0.555970,-0.556776,-0.574023,-0.510516,-0.541947,-0.546299,-0.521638,-0.525506,-0.555487,-0.537112,-0.531148,-0.570315,-0.545171,-0.571444,-0.575312,-0.522122,-0.530342,-0.522928,-0.556937,-0.514224,-0.513901,-0.569832,-0.562417,-0.560806,-0.514385,-0.560000,-0.538079,-0.517447,-0.564674,-0.530181,-0.522605,-0.528247,-0.527602,-0.547266,-0.560161,-0.520187,-0.537595,-0.556776,-0.525668,-0.571927,-0.531309,-0.569348,-0.566286,-0.562417,-0.518737,-0.543720,-0.569671,-0.512773,-0.515191,-0.519059,-0.508421,-0.537273,-0.552102,-0.525829,-0.510839,-0.560806,-0.542914,-0.511161,-0.562740,-0.563546,-0.518576,-0.493109,-0.550651,-0.554842,-0.508421,-0.511483,-0.528085,-0.495849,-0.525184,-0.468609,-0.476990,-0.514707,-0.518253,-0.502457,-0.509388,-0.503424,-0.478118,-0.447171,-0.445076,-0.447332,-0.411872,-0.426862,-0.411389,-0.356909,-0.361744,-0.342402,-0.374478,-0.392047,-0.324511,-0.326928,-0.352718,-0.341918,-0.320965,-0.333215,-0.315162,-0.295659,-0.336277,-0.334020,-0.304202,-0.262616,-0.241501,-0.221998,-0.200722,-0.203301,-0.151077,-0.169130,-0.139472,-0.142857,-0.183475,-0.196047,-0.227478,-0.249238,-0.324833,-0.341596,-0.374961,-0.393497,-0.433954,-0.486984,-0.525829,-0.479569,-0.513740,-0.572250,-0.528730,-0.559033,-0.531793,-0.531309,-0.531470,-0.573056,-0.498911,-0.494559,-0.518414,-0.451684,-0.438467,-0.417513,-0.394948,-0.452652,-0.441046,-0.415096,-0.374316,-0.443786,-0.391885,-0.442658,-0.459582,-0.434438,-0.488273,-0.455230,-0.481181,-0.519381,-0.540819,-0.521316,-0.501329,-0.528408,-0.570960,-0.545493,-0.571283,-0.540819,-0.546299,-0.532115,-0.594332,-0.555809,-0.531309,-0.580792,-0.530181,-0.558066,-0.524056,-0.529052,-0.519059,-0.518092,-0.513901,-0.550490,-0.540497,-0.522122,-0.517608,-0.512773,-0.563062,-0.521316,-0.562417,-0.521638,-0.526796,-0.539368,-0.575312,-0.563868,-0.562901,-0.551941,-0.545010,-0.533082,-0.517931,-0.544204,-0.508582,-0.520026,-0.515513,-0.516641,-0.504875,-0.517125,-0.521477,-0.505359,-0.510839,-0.519543,-0.515997,-0.536467,-0.543398,-0.572411,-0.508905,-0.514707,-0.502618,-0.535822,-0.496171,-0.517608,-0.518092,-0.504391,-0.493592,-0.541625,-0.492464,-0.491980,-0.541947,-0.530826,-0.514224,-0.500362,-0.523572,-0.486822,-0.510516,-0.526635,-0.496816,-0.492303,-0.538401,-0.484405,-0.491013,-0.543720,-0.527118,-0.523089,-0.516964,-0.521316,-0.482470,-0.506003,-0.482632,-0.465546,-0.479569,-0.501168,-0.493109,-0.502135,-0.509872,-0.483115,-0.486661,-0.496332,-0.523411,-0.488918,-0.469253,-0.468286,-0.486822,-0.471026,-0.477957,-0.443303,-0.451362,-0.465869,-0.437500,-0.439112,-0.495204,-0.451201,-0.448622,-0.472316,-0.505520,-0.441207,-0.480536,-0.496171,-0.485372,-0.442336,-0.453780,-0.492464,-0.451684,-0.425573,-0.438467,-0.466030,-0.469092,-0.434760,-0.464740,-0.446365,-0.478763,-0.462000,-0.447977,-0.434760,-0.466030,-0.460388,-0.430408,-0.414773,-0.441207,-0.421704,-0.461033,-0.420737,-0.407198,-0.423638,-0.457971,-0.421704,-0.409616,-0.413323,-0.441046,-0.404941,-0.456681,-0.454908,-0.401234,-0.413967,-0.444270,-0.441369,-0.440240,-0.409454,-0.398816,-0.434438,-0.452490,-0.389306,-0.393658,-0.429280,-0.426379,-0.425573,-0.414612,-0.392852,-0.397204,-0.416063,-0.375928,-0.370287,-0.398977,-0.434760,-0.430086,-0.380280,-0.384632,-0.395109,-0.395593,-0.419770,-0.380764,-0.381086,-0.387050,-0.401234,-0.406392,-0.384793,-0.384149,-0.402523,-0.410744,-0.429925,-0.413162,-0.419125,-0.385922,-0.395915,-0.407842,-0.392047,-0.393820,-0.448783,-0.439757,-0.411711,-0.446849,-0.401395,-0.401556,-0.435405,-0.458454,-0.409616,-0.444592,-0.461517,-0.467803,-0.431053,-0.464740,-0.436372,-0.473283,-0.456359,-0.486500,-0.492464,-0.496816,-0.486178,-0.491819,-0.458132,-0.467158,-0.452974,-0.451523,-0.495043,-0.513257,-0.463934,-0.512612,-0.492625,-0.487951,-0.543720,-0.522605,-0.516158,-0.543881,-0.505681,-0.503102,-0.557098,-0.566286,-0.564513,-0.537918,-0.508905,-0.542592,-0.528730,-0.518414,-0.525506,-0.542108,-0.562901,-0.571605,-0.541947,-0.557582,-0.524539,-0.574184,-0.557260,-0.566769,-0.531793,-0.530342,-0.525184,-0.530987,-0.547911,-0.562901,-0.553069,-0.547589,-0.543075,-0.587562,-0.560322,-0.552746,-0.553230,-0.572894,-0.597394,-0.581760,-0.554197,-0.614157,-0.549362,-0.542592,-0.608677,-0.553391,-0.537434,-0.556937,-0.557904,-0.602875,-0.555809,-0.560483,-0.571444,-0.556776,-0.561128,-0.551618,-0.554681,-0.556454
 13:22:46.,-0.554842,-0.588852,-0.548878,-0.561128,-0.556615,-0.586917,-0.568381,-0.599973,-0.597233,-0.588046,-0.598684,-0.604648,-0.561773,-0.563385,-0.554681,-0.557743,-0.543398,-0.554197,-0.593204,-0.559677,-0.558549,-0.555970,-0.590786,-0.601424,-0.551618,-0.594009,-0.560000,-0.555487,-0.591753,-0.597717,-0.561450,-0.555003,-0.581760,-0.564191,-0.531470,-0.550006,-0.589819,-0.602713,-0.578052,-0.540658,-0.597072,-0.538401,-0.578052,-0.568704,-0.545171,-0.532276,-0.570960,-0.585628,-0.566608,-0.567092,-0.550973,-0.533727,-0.561773,-0.521960,-0.538079,-0.564352,-0.570638,-0.544043,-0.551941,-0.539691,-0.536467,-0.545171,-0.553069,-0.546622,-0.589980,-0.526312,-0.534855,-0.541625,-0.529214,-0.535983,-0.580148,-0.585144,-0.524701,-0.579019,-0.545654,-0.549845,-0.554036,-0.540335,-0.535177,-0.542592,-0.545654,-0.542753,-0.524701,-0.529858,-0.538724,-0.569832,-0.514707,-0.516480,-0.541464,-0.566769,-0.552746,-0.537112,-0.560644,-0.535016,-0.568381,-0.544687,-0.588529,-0.547750,-0.543237,-0.560000,-0.564996,-0.564191,-0.531954,-0.523250,-0.522122,-0.574345,-0.554520,-0.558710,-0.564029,-0.527924,-0.565802,-0.520349,-0.557098,-0.567414,-0.517770,-0.522122,-0.517447,-0.560806,-0.513095,-0.552746,-0.550168,-0.558549,-0.530664,-0.563707,-0.530826,-0.526474,-0.526957,-0.540335,-0.538885,-0.534855,-0.553230,-0.585789,-0.539852,-0.507615,-0.514062,-0.514385,-0.528408,-0.500039,-0.551941,-0.522766,-0.563868,-0.530987,-0.516319,-0.558388,-0.527924,-0.550006,-0.526474,-0.523089,-0.527924,-0.524378,-0.552746,-0.565964,-0.504391,-0.523250,-0.542270,-0.520349,-0.539852,-0.569187,-0.577730,-0.554520,-0.516158,-0.520510,-0.534533,-0.517770,-0.521638,-0.536467,-0.544848,-0.545171,-0.550812,-0.492786,-0.499556,-0.560322,-0.507937,-0.557098,-0.519704,-0.523733,-0.553230,-0.558549,-0.549845,-0.518414,-0.525829,-0.533727,-0.560322,-0.508582,-0.515030,-0.570960,-0.509872,-0.511483,-0.552102,-0.539529,-0.563223,-0.519543,-0.518414,-0.562095,-0.565641,-0.553230,-0.525668,-0.514707,-0.555325,-0.530342,-0.509549,-0.517125,-0.503908,-0.524217,-0.506809,-0.501007,-0.499717,-0.516803,-0.557743,-0.509710,-0.556293,-0.545654,-0.522122,-0.536789,-0.554520,-0.538724,-0.534372,-0.545171,-0.515352,-0.511322,-0.543559,-0.542108,-0.548072,-0.561773,-0.505197,-0.504391,-0.523572,-0.497138,-0.536950,-0.541786,-0.542914,-0.555809,-0.490852,-0.499234,-0.494882,-0.516319,-0.523411,-0.493109,-0.517447,-0.527441,-0.499072,-0.492947,-0.511645,-0.494237,-0.507293,-0.521316,-0.502457,-0.505681,-0.536145,-0.521638,-0.488595,-0.484405,-0.497138,-0.494398,-0.522283,-0.504391,-0.462323,-0.514385,-0.512773,-0.488112,-0.457648,-0.497944,-0.458454,-0.469415,-0.464418,-0.504875,-0.444915,-0.454908,-0.450234,-0.456036,-0.444915,-0.498750,-0.504553,-0.493753,-0.460711,-0.453941,-0.501490,-0.505520,-0.453296,-0.457165,-0.463128,-0.507937,-0.500201,-0.479569,-0.454102,-0.473122,-0.460549,-0.488434,-0.476990,-0.506326,-0.453780,-0.480536,-0.513257,-0.477151,-0.519381,-0.471510,-0.510194,-0.467642,-0.490046,-0.490368,-0.513901,-0.514868,-0.480053,-0.531793,-0.536628,-0.549845,-0.497138,-0.530342,-0.541141,-0.500362,-0.499234,-0.520510,-0.548395,-0.552746,-0.552102,-0.512612,-0.496171,-0.543398,-0.502618,-0.510033,-0.494559,-0.525990,-0.531309,-0.521477,-0.521316,-0.561773,-0.534372,-0.512934,-0.509872,-0.506164,-0.547266,-0.545332,-0.517770,-0.500523,-0.547266,-0.509872,-0.544687,-0.543075,-0.526796,-0.514707,-0.511645,-0.518737,-0.515030,-0.525023,-0.515835,-0.513740,-0.532437,-0.507937,-0.503908,-0.515191,-0.502135,-0.545493,-0.502780,-0.557098,-0.505036,-0.503585,-0.533566,-0.494237,-0.532115,-0.516641,-0.528569,-0.552102,-0.570154,-0.522122,-0.550651,-0.511483,-0.518898,-0.502296,-0.503424,-0.513579,-0.516641,-0.503102,-0.526151,-0.524056,-0.547911,-0.520026,-0.545332,-0.514868,-0.557904,-0.550651,-0.520993,-0.534855,-0.556937,-0.550006,-0.498750,-0.499556,-0.514224,-0.518414,-0.492141,-0.510839,-0.504875,-0.508260,-0.516319,-0.562901,-0.509549,-0.543237,-0.505842,-0.515997,-0.540658,-0.559033,-0.542431,-0.509549,-0.507293,-0.540980,-0.497944,-0.497299,-0.543881,-0.509388,-0.487951,-0.504714,-0.521799,-0.509388,-0.529536,-0.492141,-0.474089,-0.448138,-0.450234,-0.478441,-0.417836,-0.404619,-0.460711,-0.437017,-0.365935,-0.368836,-0.363678,-0.349172,-0.386566,-0.383343,-0.377218,-0.333859,-0.317257,-0.306619,-0.312422,-0.318386,-0.286310,-0.282442,-0.326445,-0.282281,-0.271159,-0.263583,-0.259070,-0.240534,-0.236666,-0.254235,-0.191373,-0.192824,-0.130123,-0.185409,-0.136248,-0.143824,-0.192501,-0.248271,-0.245692,-0.248916,-0.308392,-0.339662,-0.414612,-0.449105,-0.443625,-0.473767,-0.481342,-0.507615,-0.521316,-0.530342,-0.562095,-0.569832,-0.525184,-0.563546,-0.491819,-0.546622,-0.481020,-0.459260,-0.477796,-0.412356,-0.449589,-0.388178,-0.400428,-0.358682,-0.350784,-0.399944,-0.367708,-0.384471,-0.398655,-0.417191,-0.473122,-0.425250,-0.462484,-0.499717,-0.493592,-0.530987,-0.555970,-0.551457,-0.530826,-0.561934,-0.591108,-0.535822,-0.522444,-0.542914,-0.593687,-0.510033,-0.521960,-0.552908,-0.508099,-0.526151,-0.568704,-0.534533,-0.560000,-0.532115,-0.513418,-0.560000,-0.561934,-0.531470,-0.526312,-0.532760,-0.516803,-0.553875,-0.557582,-0.564674,-0.538724,-0.515030,-0.507937,-0.557904,-0.510194,-0.530826,-0.570799,-0.519704,-0.511483,-0.512289,-0.546783,-0.511161,-0.500039,-0.506487,-0.537273,-0.497783,-0.561450,-0.540980,-0.533082,-0.525990,-0.506648,-0.500684,-0.507776,-0.500684,-0.523895,-0.540819,-0.537756,-0.500362,-0.494559,-0.519381,-0.499395,-0.530664,-0.527763,-0.518898,-0.521638,-0.533082,-0.528891,-0.496977,-0.496655,-0.498750,-0.520510,-0.510516,-0.516803,-0.482470,-0.520026,-0.486661,-0.481181,-0.524539,-0.491336,-0.468125,-0.486178,-0.466191,-0.497138,-0.487790,-0.514062,-0.504069,-0.491174,-0.495043,-0.472316,-0.462645,-0.507776,-0.486339,-0.493270,-0.462967,-0.509872,-0.464257,-0.457971,-0.507937,-0.459421,-0.450878,-0.520187,-0.507937,-0.460388,-0.470704,-0.464418,-0.506809,-0.493109,-0.467642,-0.457487,-0.459744,-0.451040,-0.503263,-0.441207,-0.451201,-0.455392,-0.431859,-0.486500,-0.448138,-0.444270,-0.478602,-0.443625,-0.476345,-0.472961,-0.456520,-0.488757,-0.427829,-0.420415,-0.431536,-0.425411,-0.410421,-0.413645,-0.453457,-0.408810,-0.457326,-0.455069,-0.450073,-0.402846,-0.429925,-0.452329,-0.410260,-0.393497,-0.446849,-0.399783,-0.441207,-0.435405,-0.457326,-0.407359,-0.400912,-0.433954,-0.380119,-0.428313,-0.379958,-0.415257,-0.437178,-0.391885,-0.429280,-0.385599,-0.398655,-0.378024,-0.396398,-0.388984,-0.376089,-0.429119,-0.387372,-0.409132,-0.378829,-0.398977,-0.386083,-0.412356,-0.421060,-0.375767,-0.431698,-0.383826,-0.388017,-0.399300,-0.377056,-0.382859,-0.373027,-0.383181,-0.376573,-0.383504,-0.375928,-0.411872,-0.385760,-0.370770,-0.362228,-0.389629,-0.413000,-0.423961,-0.394625,-0.365612,-0.425573,-0.426379,-0.400106,-0.379152,-0.394625,-0.387050,-0.378991,-0.362389,-0.365612,-0.415740,-0.443142,-0.421704,-0.416708,-0.399783,-0.447171,-0.432342,-0.452168,-0.404296,-0.409777,-0.475701,-0.468125,-0.416546,-0.427023,-0.437339,-0.451523,-0.430731,-0.462484,-0.460872,-0.496655,-0.499878,-0.506809,-0.467803,-0.456842,-0.467642,-0.486500,-0.490691,-0.529536,-0.532115,-0.481503,-0.482632,-0.480375,-0.530020,-0.492625,-0.542431,-0.502941,-0.499072,-0.528247,-0.525990,-0.550490,-0.526957,-0.512289,-0.513257,-0.560161,-0.566769,-0.515191,-0.523895,-0.526957,-0.520832,-0.561934,-0.538562,-0.549200,-0.551135,-0.527924,-0.566125,-0.586756,-0.547105,-0.596105,-0.558388,-0.591269,-0.521960,-0.547266,-0.520349,-0.549362,-0.552424,-0.563868,-0.530020,-0.521638,-0.599490,-0.553230,-0.581598,-0.542270,-0.559677,-0.596911,-0.590302,-0.547911,-0.586917,-0.572733,-0.588046,-0.590302,-0.540497,-0.598361,-0.565319,-0.591269,-0.550329,-0.584822,-0.556293,-0.557098,-0.555648,-0.557421,-0.595138,-0.563868,-0.571766,-0.555970,-0.577246,-0.552908,-0.535661,-0.556293,-0.536950,-0.535822,-0.541786,-0.577246,-0.585467,-0.538562,-0.581921,-0.558227,-0.550006,-0.581115,-0.587079,-0.559677,-0.578052,-0.554036,-0.588046,-0.578052,-0.572733,-0.552102,-0.576602,-0.560483,-0.569348,-0.555003,-0.565480,-0.550490,-0.559355,-0.598361,-0.571927,-0.593204,-0.543881,-0.545977,-0.543398,-0.575473,-0.516319,-0.589658,-0.555809,-0.559516,-0.541302,-0.551135,-0.591914,-0.549362,-0.592236,-0.585950,-0.566447,-0.565480,-0.557260,-0.547105,-0.589980,-0.528085,-0.520026,-0.565802,-0.547266,-0.529536,-0.519704,-0.548717,-0.593204,-0.589819,-0.547105,-0.550168,-0.569348,-0.532760,-0.564835,-0.536789,-0.579503,-0.571927,-0.504069,-0.544526,-0.580148,-0.571444,-0.534049,-0.525506,-0.577730,-0.540335,-0.575796,-0.553552,-0.548556,-0.526312,-0.564513,-0.558549,-0.558710,-0.570477,-0.521799,-0.552263,-0.522122,-0.532437,-0.503102,-0.558549,-0.537756,-0.560322,-0.535661,-0.569671,-0.546138,-0.532760,-0.566286,-0.531148,-0.522766,-0.533727,-0.567092,-0.559194,-0.555648,-0.519543,-0.531793,-0.568865,-0.565319,-0.569510,-0.541786,-0.524862,-0.571766,-0.550006,-0.590947,-0.530181,-0.531309,-0.530664,-0.508905,-0.571605,-0.535016,-0.544687,-0.536145,-0.527118,-0.515513,-0.520510,-0.525023,-0.517770,-0.517447,-0.565480,-0.550168,-0.558549,-0.542431,-0.512289,-0.558227,-0.521638,-0.540335,-0.559033,-0.541947,-0.517931,-0.553552,-0.563546,-0.525829,-0.513257,-0.511806,-0.531148,-0.531309,-0.513095,-0.539852,-0.568059,-0.507937,-0.515352,-0.515835,-0.550168,-0.529536,-0.569993,-0.559194,-0.502618,-0.570638,-0.525345,-0.553069,-0.504230,-0.561773,-0.556615,-0.551135,-0.524539,-0.515674,-0.504875,-0.545332,-0.565480,-0.542753,-0.507776,-0.554358,-0.539691,-0.512128,-0.514385,-0.506487,-0.533404,-0.512128,-0.523089,-0.527279,-0.520993,-0.531793,-0.511000,-0.555970,-0.528408,-0.526796,-0.535016,-0.540497,-0.508099,-0.541302,-0.515674,-0.542270,-0.546460,-0.501168,-0.533566,-0.513901,-0.500039,-0.532276,-0.512289,-0.509872,-0.521638,-0.521316,-0.500201,-0.502941,-0.510355,-0.505681,-0.515191,-0.517447,-0.550490,-0.507454,-0.556293,-0.545010,-0.549039,-0.525668,-0.512451,-0.512934,-0.504553,-0.516964,-0.508582
